0.9710218877259058
0.9700756164453256
0.9690489087639731
0.9681110659122762
0.967622682124707
0.9687135855537237
0.970198939531033
0.9713274474360232
0.9720973848736332
0.9725154789747942
0.9742365969780655
0.9763212051942539
0.9800798615407049
0.9833528720137155
0.9868112847345617
0.9896289809216972
0.9933395304180844
0.9977252992905791
1.0018933136319084
1.0053312722016021
1.0071851006324082
1.0081194307769905
1.0082796586165192
1.0096221618367902
1.0115607150157937
1.0124335438341108
1.0108469945521572
1.007426597892384
1.0046408827081055
1.0032707242644994
1.002700859640468
1.0015039781942554
0.9995202330521056
0.9969321438325216
0.9957617275358156
0.9968079397311542
0.9999463359166602
1.0031390529845057
1.0050003009859745
1.0061291780816957
1.0089353951524083
1.014648707384028
1.0225070327695123
1.0296813659602841
1.0361033894872738
1.0422457081845904
1.04949660964647
1.057817469804785
1.0664679710534162
1.0748830341472315
1.081908058893981
1.0891062598887447
1.0974908247538298
1.1082432487753522
1.1197975985017723
1.1304414867430645
1.1383285245222063
1.1448130587089316
1.1519028451862812
1.1610368441984253
1.1723774212795648
1.1840742715249348
1.1960778227167783
1.208743007778155
1.2238078361711708
1.241226674792289
1.2596589266104115
1.2772627509452805
1.2898901040803148
1.2989584857143845
1.3070909771408747
1.3166407586153934
1.3263318392334835
1.332876340032076
1.3382084946463222
1.3429307914715505
1.3497107352719147
1.3564769947635955
1.3635948087858614
1.366554477117688
1.365456023770008
1.3624491698406875
1.3592038468163337
1.358776274004499
1.3578114279969289
1.3572918444828301
1.3523254796272046
1.345719407864675
1.3373652908293903
1.328964291359972
1.3167475073247943
1.3009558206311747
1.2812779258620655
1.260430700963462
1.2404337919758428
1.223908416030243
1.209261458968787
1.1943117644897798
1.1782020529034753
1.1630373543080004
1.1490042144478894
1.1384448582049138
1.1284759393476183
1.1190002354581419
1.1076901761793825
1.097005637696369
1.0874123827470599
1.081689537071803
1.0767899528780533
1.0722818228589073
1.0659670410982092
1.0594841495452116
1.0539234349355535
1.0507904654638216
1.048418300874177
1.0461076005233847
1.0417731783695299
1.037182064210301
1.03320943265679
1.0313619171351294
1.0301227123587002
1.028201023910551
1.0247524868706264
1.0206096916897713
1.0175376454938196
1.0162653688064207
1.0161270437167687
1.015695495746858
1.0135678096846517
1.011375524381821
1.0096325000107411
1.0102502054667766
1.0115010630593062
1.0123641853883893
1.0109863821182388
1.0093255915939408
1.0083395840989466
1.0094956307011702
1.0114608983616877
1.0131942504654505
1.0131968217690885
1.0121206219811827
1.011237248468551
1.0126060325347388
1.01407475275584
1.0152854521013377
1.0139481132917179
1.012994547079583
1.0124545898745214
1.0145221464326637
1.0169390613146259
1.0193196164228437
1.0197300444995614
1.0201355480715681
1.0214991013626658
1.025066521040814
1.0294604091514106
1.0334704979858784
1.0362744991410178
1.0395853940752797
1.044974481769185
1.0538237448123349
1.064877290178791
1.0772135881475398
1.089764324034049
1.1044168954585534
1.1226613939751733
1.1458269227867666
1.1722877646653618
1.2001500606822249
1.2264726260273968
1.254096130764633
1.283445059152007
1.315334399597491
1.3457979229958417
1.3710523398909902
1.3860796055979063
1.3920475486704451
1.393691227378888
1.397653348019474
1.4029841058135257
1.40873183229037
1.4108996888705874
1.4141162890790475
1.418374965910917
1.4261433662505698
1.4336026530943766
1.4402014112551076
1.443794062291243
1.446045325886962
1.4447738053780348
1.4447256922249796
1.4419242627975126
1.4408732104508517
1.4359289040416243
1.4328165015474084
1.4317958661971635
1.4375171183895472
1.445873860369929
1.4553370453803296
1.461765571959128
1.4689214805918924
1.4754897187720442
1.4835655066405558
1.4888632736509073
1.4921973244120843
1.4892626513886498
1.4829210911389585
1.4737874868316743
1.4650004823567284
1.4544446076323754
1.4420816117355224
1.4261470723895586
1.4101928538512871
1.3949199465734208
1.384876461457499
1.3757020394994626
1.367566352339484
1.3562116793657886
1.3470650095032308
1.338818127046257
1.336461988981522
1.3342185330652203
1.3330859903395484
1.3299485974794296
1.3295500787849457
1.3305119882295162
1.334679955542634
1.3388011966119744
1.343626178225647
1.3459480950868004
1.349701663636116
1.3543658645667196
1.3637386666686502
1.3730133781417528
1.3839850510370522
1.3920887159553872
1.4026530878381451
1.4134591902478564
1.4284673392842488
1.4427545400514183
1.4563219111957333
1.465954309860478
1.4750975703141145
1.4824080603063126
1.4919074383573796
1.4970935847066262
1.5016712227861302
1.4985099855975212
1.4964836316624142
1.4928821724537418
1.4941589953225538
1.4947633198850756
1.4965928469217178
1.4940547751297897
1.491137639018271
1.485415918701898
1.4821277806315665
1.4755514453061715
1.467744523663606
1.4514601399043259
1.4350362405099144
1.4156883262014153
1.4018898205190375
1.3861976671193188
1.372706566210726
1.3566150597194435
1.3431555084057092
1.33119371823307
1.3248366429376455
1.3205147991724182
1.319414490018654
1.317150424230179
1.3173980417837374
1.3185624532086484
1.3250929825397595
1.3320583081155506
1.3416688476409484
1.3489750648933911
1.3572849961667601
1.3638570157356937
1.3718180093913492
1.378039189406018
1.3840251192208275
1.3859959366605383
1.3875825372275117
1.3888251499366864
1.394810027297959
1.4025163957121325
1.4112730186398867
1.4162392064983695
1.4226519700720464
1.4283415546092126
1.4390509712008788
1.4484552580021475
1.4590583592602004
1.46480284461341
1.4715972378143998
1.4757742023472185
1.4832563452946133
1.4904683521475068
1.4988357515087856
1.5032247881167469
1.5074869154084802
1.5126930733958786
1.5207952054156273
1.527885515514315
1.5340975214018011
1.5383294872351778
1.5427226851107545
1.5470607689747304
1.5532353814918898
1.5582892436045936
1.5616964524350072
1.5601031030054655
1.5583855954114492
1.5554649362115378
1.556431508308192
1.5546316842824692
1.5530724958326643
1.5474343541403401
1.5422676589141773
1.5383649456160107
1.538932683357616
1.543685257541714
1.5497496587455393
1.5543336180257914
1.5620980487498348
1.5724195036685478
1.5891635539414501
1.6072613736528523
1.628298371390939
1.6462297748245764
1.6652566816072598
1.68211163437775
1.7024127349502187
1.7197974736271653
1.7382216819352758
1.752610206000817
1.765516137555733
1.7749617783284637
1.786493434826741
1.7954432321399931
1.8038881931628064
1.8038885178288948
1.804578640696428
1.8027029927155112
1.8068124272965913
1.8100553383430444
1.8178023917911872
1.8169913891007472
1.8180515994292126
1.8155590176640963
1.8184359123730698
1.817610513989621
1.8165259546573604
1.8125240758634253
1.8099965491661691
1.806124130306936
1.8071017926562432
1.8066187639080862
1.8102120953100884
1.8068901241412616
1.8060453398176124
1.8023566594215403
1.806523608902533
1.8077321358572007
1.8114809205346856
1.8072655206270043
1.8055714725241097
1.801386940243783
1.8044241018794016
1.8051235778739831
1.8078975081064386
1.8039164882143948
1.803080151421288
1.7987036082736187
1.8009889559732277
1.7995325238562048
1.8004895474278038
1.7969479609046606
1.7956655176061358
1.7945692904599455
1.796381623382126
1.7975964793938908
1.7990163903978293
1.7977323202800217
1.797074076791171
1.7963573747981427
1.79879885769227
1.8015395927925095
1.804506696456645
1.8012902898037062
1.7979538386629523
1.7903848609665511
1.7914962349776817
1.79068965030838
1.792455472471733
1.7860498717608457
1.7818624374977885
1.7759044887816886
1.77658537701262
1.773226372929841
1.7712610618743465
1.7629390259715827
1.756362838066664
1.748203288703245
1.7436181797080326
1.7385110341255186
1.7349865769603996
1.7271982874656042
1.7193374193511781
1.7106514715007222
1.7064226283539947
1.7007130936352233
1.6973668141394285
1.6899325248260708
1.6829581723174594
1.6728854842419139
1.6661058436475464
1.6593064871602763
1.6518662774836677
1.6391785640884884
1.6245427620730697
1.6079959044020147
1.5946702369510284
1.5808229183055706
1.5682342698640048
1.5516345198269634
1.5371048747240288
1.5210307395879525
1.510746703743516
1.5012473072248067
1.4937219198120901
1.4833721155763475
1.4737543584306276
1.4657118390398531
1.4622201099512053
1.4569963163224215
1.4530272131386015
1.4468959385166262
1.4439821309278982
1.4395065597766632
1.4388046291806738
1.4375871952183412
1.438065285233689
1.4336350904526522
1.4309135556290118
1.4273891330258226
1.4299752096240315
1.4309770443544787
1.4342991143847281
1.4327076241113417
1.4330440433051603
1.4326226174451644
1.4363170876615172
1.439860764717984
1.4442245230472694
1.4450680847953505
1.4468735202451526
1.4472037455396611
1.45183561807429
1.4548486931137445
1.460452381947215
1.4608527639153128
1.4607978652954976
1.4565453395426338
1.4548265881578688
1.4512289230437672
1.4484415850532946
1.4389217048109266
1.4291209595532437
1.4163806436774313
1.4060681071737484
1.3945204737248433
1.3827169378401563
1.3685722719568072
1.3553814391654602
1.3436631841073987
1.335334393381393
1.3260749272703
1.31585739862237
1.3044739258731566
1.2932275788216923
1.283410182883502
1.274602848150491
1.2636196133948179
1.2547299287228477
1.2400750588913356
1.2280597404879507
1.2149329351108171
1.2105631097937783
1.2021425208371475
1.194426581135501
1.176370673121203
1.1708756679827867
1.1614174240821868
1.1517050716994273
1.1398848554948404
1.1291252479612506
1.124925733584843
1.1131260149469895
1.1017500717902697
1.0927966081810225
1.0879524272029482
1.084701678781778
1.0805424779074253
1.0724917608658338
1.068161990230633
1.0589066816453383
1.0545364947245026
1.0501006356728748
