0.4672561742070608
0.46649795155881385
0.4659792460804021
0.46527406637170315
0.4648457942843812
0.4648672768426331
0.46581583821217165
0.466224811037149
0.4672257495163208
0.4674398180864032
0.46943390208038244
0.4710508835658231
0.4749979707745499
0.47787113868891334
0.48260458959475266
0.485148472154021
0.48933187860282773
0.4922436344523826
0.49675215477256524
0.4991076248605431
0.5015440788772838
0.5020707516767691
0.5036145814770434
0.5044803441396271
0.5062733875613581
0.5062316861750541
0.5059264331427475
0.5038271394194485
0.502881930985269
0.5014899160174837
0.5016765625640558
0.5005212154853433
0.5000666585057137
0.49852096006405744
0.4989251309938468
0.4995791736269044
0.5020567386475845
0.5036457728276525
0.5056665938088826
0.5067772997824072
0.5097484548165298
0.5133846398677813
0.5188173484815812
0.5233618681208995
0.5284847128116952
0.5326569957573333
0.5382614510284681
0.5436854120401322
0.5503605058370864
0.5560394257839271
0.5618647058117533
0.5668307014620204
0.5733108965377581
0.5803664294637905
0.5888088133550486
0.5960130472576362
0.6025062891728421
0.6071897180854346
0.6127768683428781
0.618796289800962
0.6270029310207724
0.6352868235600043
0.6445559050961079
0.6539164863190496
0.6655331123586662
0.6781808390571371
0.6924030855114541
0.7047994691869581
0.7152776115525807
0.7228177912044697
0.7299755214363023
0.7365449102918651
0.7432573451052558
0.748487426857112
0.753333394187887
0.757454470405386
0.7629216940037645
0.7685012045151194
0.773934961607657
0.7764604935802336
0.7766480717274901
0.7744471033450602
0.772788270771205
0.7717379822445045
0.7719513121711252
0.7708885063745164
0.7684517415773972
0.7636714947275068
0.758107262718888
0.7507589535571524
0.7416938454908583
0.7290513789550457
0.7142849507622367
0.6982680650303663
0.6836395812691942
0.670728401359428
0.6597591165475838
0.6487726917018484
0.6381666192967992
0.6273303360531085
0.6181852800254393
0.6100890771339881
0.6034339093735017
0.5962256247154327
0.5891094806834286
0.5815491209339398
0.575757623069877
0.5712702018733623
0.5684165861490587
0.5651058122668546
0.5614959383387069
0.5572480231285951
0.5540758405484878
0.5516335758534651
0.550349047081956
0.5483244764498688
0.5460982856113091
0.5430039441339228
0.5410123467491561
0.5396541140787179
0.5391307533114816
0.5376508262628539
0.5357066424503303
0.5329707722896946
0.5313588324810393
0.530451000177995
0.5306794723544532
0.5302998394985435
0.5294198699824029
0.5279364634700968
0.5272067394556155
0.5275140669142935
0.528604717462062
0.5290531648706241
0.5286828703116542
0.5277376038618679
0.5278206740876384
0.5288413060238593
0.5306036978012633
0.5315954505933398
0.5317055446504163
0.5311142394447812
0.5311364594956968
0.5320168882829438
0.5334011480894254
0.53400155350182
0.5335132849311929
0.5328435393275688
0.5329968882181058
0.5345456660122185
0.5365106506539508
0.5381467979118444
0.5387879000042465
0.5392992623494327
0.5404205532459463
0.54302302582726
0.5461665627086822
0.5483481992233882
0.5506036925223988
0.553275283478191
0.5580214091361022
0.5642619738262925
0.5721457833487383
0.5811026537216765
0.5904895672761963
0.601192352706839
0.6148019085319633
0.6312418323532187
0.6505754007955924
0.6706439603839662
0.6913276337825921
0.7125886345710629
0.7359181289248432
0.7607731992565774
0.7853418859497878
0.8054608674671797
0.8176143975353385
0.8223927272484449
0.8243800215567841
0.8271407501762368
0.8318893209684969
0.8362158118664108
0.8394971926927436
0.8420066530095606
0.8461686220945029
0.8519311334983143
0.8587893482425542
0.8642514431156271
0.8678380383501735
0.8691094789476596
0.8691561130537043
0.8686571422136014
0.8672427444049801
0.8650520463463915
0.8617056376290683
0.8594923882586312
0.8597828141341257
0.8643263379885793
0.8714708156814176
0.8797412854739712
0.8870900655800316
0.8943296729224856
0.9015373980979535
0.9087490109880284
0.9139563848611834
0.9161402666786405
0.9137123475949901
0.9082438780432011
0.9003914670201748
0.8919543116847665
0.8820820664376778
0.8706905439084215
0.8575610136401074
0.8443051379619576
0.8325763694377922
0.8233682242469839
0.8155156405490155
0.8079884106161397
0.7999306178431604
0.7925779702222523
0.7865914027595776
0.7832194338320145
0.7814382788739395
0.7802103655899024
0.7788707099630144
0.7783808567144267
0.779412965013783
0.7827725402350303
0.7868983730172946
0.7910534838734781
0.7939043523217892
0.7970870084659225
0.8016934820796474
0.8089333801621988
0.8171947785068153
0.8260202668875408
0.8341340146389153
0.8429385640605326
0.8530053059262479
0.8650740339946652
0.8782499420725143
0.8909466778213444
0.9015777181145841
0.9108924086363601
0.9189986248199545
0.9268183787926411
0.9324267563697729
0.935547834627365
0.93459451335213
0.93224555558687
0.929934376057138
0.9300078517355955
0.930892269423946
0.9316216914399691
0.9302883631203663
0.9280257792620639
0.924540553716234
0.9208490190909633
0.9144802925960082
0.9050832245618965
0.8911973354915772
0.8758942465505596
0.860059860926437
0.846312908070677
0.8330954965487256
0.8205333050102964
0.8079187567308923
0.7967118319287989
0.7880021000813054
0.7826685438487294
0.7796469039989697
0.7780215492160637
0.7768234784221757
0.776606908001813
0.7785670043738909
0.7831366185319788
0.7900384023498975
0.7974828815081066
0.8047292636979513
0.8112550435386638
0.8175420850223334
0.8239923392649502
0.8298248654785734
0.8341451363813602
0.8362691504223728
0.8377062132762881
0.840355386552624
0.8454089759722693
0.8522475754778743
0.8588970977844449
0.8642003851225069
0.8694631967606028
0.876194968595093
0.8849818332348818
0.8945618929149042
0.9031600353496312
0.9100778647149429
0.9151837097419824
0.9208765332043642
0.927474121144756
0.9359504121907167
0.9432844878110246
0.9490544069775938
0.9537152912161019
0.9594002515826737
0.966480063064458
0.9743988551975794
0.981309479608398
0.987365270632232
0.9923911738241802
0.9976948606053592
1.0037248633841307
1.009429562534172
1.0130878823198253
1.0137414086404415
1.0121063926819163
1.0100759447925771
1.0083448212867343
1.0066689314052182
1.003376347319925
0.9985941692474034
0.9935430036482028
0.9910122496611076
0.9918429818479069
0.9957611851997357
1.0008811335148768
1.007476723195224
1.0160118541281684
1.0288949240584075
1.0461285768520219
1.068109880535856
1.0927991240278343
1.1186341864689968
1.144755763455883
1.1719779864967024
1.200683945792544
1.230723060870846
1.2614416402713955
1.2913502005003783
1.3208551447030248
1.3489237929139597
1.3742697153461398
1.3945666024361045
1.4078570275078697
1.414450140161184
1.4187348069601013
1.4249327638203273
1.4347385221195557
1.4473495999458585
1.4590483605352211
1.4671223078905444
1.4702478940888393
1.4715775109634268
1.4711744983437223
1.4703200958177458
1.4667850997355063
1.4622198845463066
1.456718076537524
1.4532927544545797
1.4521517740833059
1.4535781496237197
1.4552930673752809
1.4560384681891418
1.4563108376270548
1.4577011953456278
1.4609373469641154
1.46475417408232
1.466590838312766
1.465893337823735
1.4639732210367549
1.462851445808351
1.4640154439020625
1.4654596600711132
1.466066094219379
1.4640199101471656
1.4609134875992562
1.4589042701066302
1.4590388882678866
1.4608308421182958
1.4618133220131544
1.4608668784289551
1.459039423653742
1.458307546459132
1.4600811701473126
1.463090248339917
1.4652082627898457
1.4656036001777983
1.4647771205630187
1.4654388605291535
1.4682206008962764
1.4717541961936953
1.4734607207356012
1.4719155295745816
1.4683335288994548
1.4646414182034821
1.4616734895890302
1.4583867064076568
1.452521474090513
1.4433731268621364
1.4323293984336323
1.42172266726352
1.4123379673563976
1.4032430626435473
1.3919281192890849
1.378418803618122
1.3633200494351567
1.3491332510900444
1.337043713907793
1.326413787419536
1.3148410503329266
1.3016101509355391
1.2875799689814043
1.2753308363005489
1.2651958179401543
1.256239877980645
1.246238125144965
1.2344829328704652
1.2212778938989013
1.2086726090841051
1.1971356878070636
1.1853318266672246
1.171104294547382
1.1539238288419789
1.134262944655903
1.114298501879825
1.0956097179606024
1.078106842004692
1.0600049769165276
1.0413559895611277
1.0232208916649264
1.0074622402958202
0.9951031603445661
0.9850803445031899
0.9756765389049975
0.9659837516188841
0.9564014886352795
0.9486882712734032
0.9435896505416292
0.9401618337158257
0.9366707483214344
0.932307887960613
0.9279508284939129
0.9247055104933717
0.9231562567277568
0.9224584238135588
0.9215675392292795
0.9195222188243369
0.9171899585909727
0.9157976676966979
0.9164720843210236
0.9179688065415688
0.9194819316675562
0.919549005156156
0.9195560221440497
0.9205725491145189
0.9236418605292918
0.9278975028189412
0.9320229660549941
0.9348881087108059
0.9372885749208095
0.9401575412552753
0.9445994176926804
0.9495252280096436
0.9534246765632435
0.9547777972432742
0.954321046469083
0.9534580735379145
0.9522118851599978
0.9499660798501415
0.9452120749395411
0.937094955498462
0.9269808614884578
0.9163618449404178
0.9054601314952002
0.8948816005281613
0.8839201596588768
0.8732548229427041
0.8628215231224614
0.8532315302505167
0.8441854957040469
0.8355564852537741
0.8259725480388245
0.8155390795251111
0.8044470886105022
0.7941126450805202
0.7842756003404507
0.7752045040834065
0.7654109283242256
0.7549413187562547
0.7438578383368692
0.7332522717458526
0.7238151589451037
0.7147573396063498
0.7054793874008969
0.6956887096567154
0.6854004921488424
0.6759906837805245
0.6666364470398899
0.6579802563005063
0.6487806641766914
0.6398992264355094
0.6305403278257878
0.6217902761412215
0.6134428557072128
0.6061543778429546
0.5988063830041914
0.5914267972889041
0.584034800345375
0.5769341379351522
0.5703483545461364
0.5647488133751302
0.5600780931787428
