0.46351606664629985
0.46268313815850043
0.4621416132079687
0.4614225727985951
0.46103325115079724
0.4610324089130316
0.46205287127329997
0.46239132670460326
0.46340869927808714
0.4635972425951162
0.46563840308775123
0.4673058024002649
0.47130700756606786
0.4741865306671361
0.47893465430866433
0.4814445273447793
0.48565787862945614
0.48850692444507027
0.49298460832626706
0.495305868325533
0.49774842835781846
0.4982480315548627
0.49975066675792923
0.5005742363294361
0.5023718129997442
0.5023362503131699
0.502099080720829
0.5000262217375032
0.4990700989983755
0.4976457502695335
0.49783668753770643
0.4967088234689604
0.4962764335650236
0.4947185333143516
0.4951314572411825
0.4957829418791776
0.4982568313790262
0.4998537925669203
0.5018710128586483
0.5029464606416014
0.5058540296625458
0.5094378369567267
0.5148685030570725
0.5194007274092769
0.5244755125189264
0.5286500894472699
0.5342186477663962
0.5396330321171751
0.5462360915177877
0.5519019473917506
0.5576750942267528
0.5625613026271978
0.568996880076604
0.5760491932342999
0.5844380672644686
0.5915588851392093
0.597915238661329
0.6025811847552948
0.6081589178886396
0.6141753193901001
0.6223160335164506
0.630499112452821
0.6397088226391285
0.6489766426197219
0.66048078554122
0.6729904639479498
0.6870802993474917
0.6993385141590374
0.7096876928835681
0.7171886359193611
0.7243039210402766
0.7308170762695549
0.7374123339199141
0.742595953805465
0.7474362344650454
0.7515386535200407
0.7569146415912669
0.7624163876490937
0.7678088886909936
0.7703640054620705
0.7705010231540939
0.7683350864984719
0.7666567748579756
0.7656829847545218
0.765878984226848
0.7648889645996516
0.7624507676826511
0.7577649032433346
0.752235491225327
0.7449985443165057
0.7359902626352266
0.723463069030101
0.7088158255708787
0.69293461206897
0.6784472068180157
0.6656626476535673
0.6548574802783093
0.6439757026171918
0.63347406187898
0.622695579163343
0.6136679854893337
0.6056121871877777
0.5990164149869902
0.5918261511533174
0.5847969552258316
0.5772954935943126
0.5715460551162759
0.5670973976695374
0.5642911194486756
0.5610656425921209
0.5574862513294314
0.5532463983299334
0.5500629735545995
0.547610413602999
0.5463411132678062
0.5442997624844819
0.5421319953440001
0.5390469330994114
0.5370861310269324
0.5357143359992622
0.5352259484830437
0.533759973523423
0.53180927568416
0.5290875290743735
0.5274736564392227
0.5266012510109898
0.5268116993148555
0.5264587270337016
0.5255727143642571
0.5241155046079763
0.5233572425083747
0.5236400974799539
0.5246900010314963
0.5251404317896264
0.524764422574934
0.523859533722748
0.5239501651372416
0.5249886498634153
0.5267032816427276
0.5276988496463378
0.5277889176077926
0.5272043393252283
0.5272121826219688
0.5280959564867457
0.5294589010546338
0.530032569904082
0.5295177594759605
0.5288559826443627
0.5290042426775633
0.5305779024613699
0.5324818200732887
0.5340877573060461
0.5346980974461636
0.5352386846224286
0.5363426050929272
0.5389584294398997
0.5420672483009317
0.5442784881283584
0.5464560911364034
0.5491297837472023
0.5538203411672933
0.56006599416577
0.5678743730351646
0.5767711748018455
0.5860699242567273
0.596716893116913
0.6102359944734504
0.6265643605105848
0.645749474302846
0.6656483827784754
0.6861256427409425
0.7071634050451844
0.7302997106457272
0.7548976160715067
0.7792312903928805
0.7991010345089238
0.8111403539047453
0.8159014237439819
0.817868142929203
0.8206256014671478
0.8253141528282293
0.8296147621914418
0.832886760239213
0.8353441648715358
0.8394862903920058
0.8451563133847817
0.8519661903251946
0.8573987683913876
0.8609362243316631
0.8622258034687516
0.862241559321218
0.861810327986614
0.8603820834035509
0.8582339113647596
0.854907977049671
0.8527010869947953
0.8530008398307765
0.8575242086152102
0.8646510978407788
0.8727939855883592
0.8800489576910475
0.8872052892432403
0.8943446491894729
0.9014865542719712
0.9066966987394156
0.9088996033746443
0.9065284547990936
0.9010545738764856
0.8932643411606951
0.8848637583684082
0.8750935566833465
0.8638162881750219
0.8508091333050425
0.837705608310869
0.8260685636767592
0.8169723980960186
0.8091802432587268
0.8017079988662166
0.7937461528146439
0.7864403013513463
0.7805314471558212
0.7771913109189362
0.7754373750026837
0.7742236718185318
0.7728631686369791
0.7723829607174852
0.7734136838184796
0.7767310069865146
0.7808263888672867
0.7849192945039948
0.7877780515243901
0.7908905057230461
0.7954835474494941
0.8026138768191432
0.8108260395026464
0.8195301081516817
0.8275694743519992
0.8362843660328999
0.8462630616027828
0.8582353314632519
0.8712915007238083
0.8838888394847473
0.8944236064801118
0.90366114102822
0.9117246062264727
0.9195162712191195
0.9250619240335748
0.9281042337060432
0.9271556692465588
0.9248663238038966
0.9225699464613649
0.9226491426177248
0.9234880560609205
0.9241979082454652
0.9228659074695325
0.9206344755928618
0.9172390122164006
0.9135334165243947
0.907234812819189
0.8978966694941983
0.8841487585578843
0.8689581450512364
0.8532644183482528
0.8396883891291549
0.8266002510174332
0.8141511869866992
0.8016085718200384
0.7905096967938613
0.7818705302827481
0.776581166817411
0.7735922637929895
0.7720205956712259
0.7708260738528505
0.7706307655593275
0.7725574210899743
0.7771493720459117
0.78395110022452
0.7913512683704209
0.7985357496053571
0.8050250351370062
0.8112195417965078
0.8175496240908519
0.8233389014276717
0.827617600647442
0.8297568130591911
0.8311191378005259
0.8337461058192104
0.8387031175903743
0.8455106644122296
0.8520922123530529
0.8573970039067579
0.8626485592448881
0.8693610070445942
0.8780541788490336
0.8875655755044649
0.8960741941505556
0.9029442276901741
0.9079415553498992
0.9135738111891852
0.9201301342404622
0.9285749561597625
0.9357982644967705
0.9415581344337384
0.9461799296409192
0.9518499252576008
0.9588317877916323
0.9667310564078722
0.9735764909933631
0.9795385519779649
0.9844518261978134
0.989688830422965
0.995664999546854
1.001300933401515
1.00487120637203
1.0055408835867772
1.0038438034081572
1.001854653423509
1.0001142621873444
0.998482659059765
0.9951865957730863
0.990380305068084
0.9853550553858546
0.9828187389200199
0.9836536838659573
0.9875208816677631
0.9925854761956464
0.9990478076295074
1.0075295808111202
1.0203986164436047
1.0376113653696808
1.0595305558328378
1.0842139681517136
1.1100626586068405
1.1362112215521387
1.1634807822414923
1.1922874794633858
1.2225263311557186
1.2534532985134743
1.2838660547417364
1.3140172233045702
1.3429501969947972
1.3689960723477466
1.3900487854190664
1.4037316658721852
1.4106705159171535
1.4149703938022378
1.421532678148108
1.4317096434899663
1.4449442925918698
1.4570304143126318
1.4656960657142666
1.4690936906999386
1.4705813558410779
1.4700088138262513
1.469023345988009
1.4654756665781494
1.4607717625132701
1.4552096279215037
1.4515911648809081
1.4503008827145083
1.451632936213032
1.453420167103282
1.454243026495178
1.4545057150561413
1.4559057587904132
1.4592678132412407
1.4632655214746892
1.4650989000953887
1.4644960828418783
1.4623961993052415
1.461467564515928
1.462643650787266
1.4643585623903546
1.4648921268667532
1.4628440533078693
1.4598102436925033
1.4578091615232316
1.4579084407861307
1.459573667308847
1.46041642159638
1.4594144367732642
1.4576487654645003
1.457042918154628
1.4589791539369907
1.461975855926218
1.4639440534069
1.4643543359129685
1.4634403358099126
1.4644833560137556
1.4673558225515564
1.471113098597316
1.4728340202807344
1.4713402560180742
1.467663795851319
1.4636685425705052
1.4604273452080438
1.4568716399624841
1.4508052557914648
1.4412148283550932
1.4296901823549824
1.418532178794612
1.408661026579496
1.39917030200904
1.3873287514466976
1.3734140393106693
1.3578582509068167
1.3433856180173236
1.3308572902460751
1.3200037862328522
1.3081690712484642
1.2947947174751477
1.2804990424938205
1.2681353272736946
1.2578589848341566
1.2486634935568812
1.2384774256497975
1.2265901332921778
1.213391841361239
1.200674052612211
1.1890394692885364
1.1771401148008485
1.1627942143549923
1.1455661239990755
1.1258704895741023
1.106065145756057
1.0873262803090096
1.0698786432351084
1.05177217367459
1.0332774077312488
1.0152174836856134
0.9995440762755625
0.9872805484931303
0.9773326123240637
0.9679765133399156
0.9582939170577807
0.9487667993758919
0.9411534312502576
0.9360924957490231
0.9327541663192768
0.929271805790468
0.9249588494235721
0.9206062536112272
0.917356405137011
0.9158124085985058
0.9151869698848328
0.9142763268844748
0.9122253736500776
0.9098206964246291
0.9084877830872118
0.9091740695633749
0.910670896244784
0.9121772166543681
0.9123069343021614
0.9122950182558024
0.9132905963520063
0.9163341445783703
0.9205708389982978
0.9246273025252278
0.9274129702067292
0.9298007040033401
0.9326402839502753
0.9370178539205263
0.9418423462845759
0.9456542666574506
0.9469686797966306
0.9465399381617475
0.9457022041498427
0.9444664569754408
0.9421936916875724
0.9374373143611818
0.9293788459045679
0.9192923535879935
0.9087122131465432
0.8978313847982657
0.8872744487769679
0.8764557401825662
0.8659147726192231
0.8557786544111112
0.8463087441926052
0.8372735765266079
0.8286390263866542
0.8192217292560472
0.8089242933804605
0.7978789665877503
0.7874757143211069
0.7777946310990658
0.7687342883291585
0.7590201884435868
0.7487503821332817
0.7378715318883742
0.7275706713093344
0.7179357234563736
0.7092100029419154
0.699884012629089
0.6906442513706138
0.6802107842163095
0.6710513518982315
0.6614697887679937
0.6527963915004408
0.6434088020293897
0.6347348683490485
0.625611197447134
0.6171504290008903
0.608666813296707
0.6011625561030373
0.5937721358769662
0.5863321545013948
0.5792100008384786
0.5721538510453446
0.5658789868000909
0.5600920787765634
0.5550434470863892
