0.464282950017645
0.4634828735828989
0.4629215610308699
0.4621870654595989
0.4618157266444486
0.4619342783011438
0.4629571318179428
0.4632822063743217
0.4642052775287001
0.46439126076608306
0.4665030840078136
0.4681409238611332
0.4720740023433582
0.47488718718735057
0.479645189542526
0.48218585858937335
0.4864015627553251
0.48929425746492977
0.4937787371446735
0.49613161837006814
0.49857157789120987
0.4990790614318097
0.5005860676833725
0.5014157348026895
0.5032269556968922
0.5031875604321822
0.5029050994962815
0.5008272569079937
0.49987560468892933
0.4984494784052171
0.4986386329564738
0.49748557754263906
0.4970809018374486
0.49552684869673097
0.4959532431698387
0.4966091223488987
0.49909496863253877
0.5007030411456894
0.502741030277657
0.5038019257456734
0.5067197278163552
0.5102815849989987
0.5157272747867501
0.5202460139052121
0.5253378059807893
0.5294856339975706
0.535071976310654
0.5404728518259128
0.5471099066652083
0.5527699281344467
0.5585676434425384
0.5634983112760811
0.5699219536875674
0.5769628286138125
0.5853662464318936
0.5925153567150014
0.5989195438765703
0.6035466183522727
0.6091392756401387
0.6151449935616188
0.6233213482287339
0.6315248560353316
0.6407493399575738
0.6500375685651048
0.6615790639555307
0.6741082982411795
0.6882235155153883
0.7005449039163267
0.7109726934355837
0.7184845331892477
0.7255650451123034
0.7320459670188146
0.7386420302908941
0.743827269388595
0.7486556171478366
0.7527658969695528
0.758137303855452
0.7636924583981388
0.7690985181696133
0.771663623654547
0.7718430646426077
0.769687531266529
0.7680795545161837
0.7670570990523453
0.7672309705242616
0.7661486560028444
0.7637036070973628
0.7590028393705389
0.7534954216269903
0.7462157521456532
0.7371885699508902
0.7246347879235271
0.7100016829774587
0.6941043590083491
0.6796039787942976
0.6667944966924725
0.65594567038742
0.6450334577401668
0.6345131498293175
0.6237422204350762
0.614641694287319
0.6065689488088889
0.5999565709762551
0.5928110956037713
0.5857431773347128
0.5782336095538918
0.5724911134281394
0.5680345264342955
0.5652221639727588
0.5619271749232404
0.5583516617593153
0.5540996413389367
0.5509517391116995
0.5485105129514092
0.5472282185376277
0.545184710286765
0.5429898833591471
0.5399371574387029
0.5379654929907234
0.536603445948553
0.53609930741213
0.534647093633346
0.5326997222250364
0.5299448995210261
0.5283261412372847
0.5274398861352809
0.5276810517517897
0.5272983345191657
0.526431202507769
0.5249217078717398
0.5241838020773394
0.5244482443813349
0.525525792575118
0.5260001117923712
0.5256422075506333
0.5247133680085654
0.5247733417509647
0.5258014813215215
0.5275610354191731
0.5285633283752212
0.5286708125868813
0.5280489250502655
0.528071829324788
0.5289372698328032
0.5303162685075472
0.5308836579090408
0.5303930721870203
0.5297390359208054
0.5298751108200709
0.5314001599214572
0.5333621024060492
0.5349728430538716
0.5356057339028266
0.5360973712846424
0.5372082930509214
0.5398113448046037
0.5428984115941482
0.5450905508453117
0.5472989536777718
0.5499945053857428
0.5547167025829064
0.5609741658033398
0.568777427993735
0.5776816362065733
0.586966428161856
0.5976553621066992
0.6111607272270682
0.6275427846317504
0.6467343866259869
0.6667125168690237
0.6872145874007015
0.7083297685368725
0.7314834317296944
0.756136094981396
0.7805184855431372
0.8004499658605098
0.8125120494670901
0.8172561693714745
0.8192461089320171
0.8219884340669484
0.826670261299734
0.8309301544445876
0.8341831346897066
0.8366793834829401
0.8408420707976869
0.8465719146972205
0.853375818520709
0.858809089135969
0.862335277108205
0.8636514363486196
0.8636620587216418
0.863213860660942
0.8617619406264989
0.8596037178985393
0.8562631725685406
0.8540692503483976
0.8543980504707033
0.8589347989773605
0.8660695313313319
0.8742587316487724
0.8815258728775206
0.8886803219926288
0.8957940681574059
0.9029658840790834
0.9081352767833524
0.910339577842728
0.9079576308340659
0.9024909324893922
0.8947038480574283
0.8863023335520579
0.8765484101334244
0.8652444876245989
0.8522440622997653
0.8390978694515865
0.8274447396038908
0.818287185669164
0.8105011167967631
0.8030421260772024
0.7950831201780372
0.7877925571793694
0.7818616048521475
0.778505467200049
0.7767625882703205
0.7755229667586494
0.7741997825333947
0.7736668547970325
0.7747143391853094
0.778004980671554
0.7821169187523876
0.7862275701704741
0.7891170350240805
0.7922504395936187
0.7968384887986476
0.8039626669802881
0.812169393294368
0.820890184783864
0.8289537401418346
0.8377186118936452
0.8477154463518718
0.8596978521948285
0.8727298744491367
0.8853270345581047
0.8958935364115246
0.9051569388887554
0.9132364810033944
0.9210069393173619
0.9265957597799566
0.9296625954879397
0.9287323002576108
0.926414218537158
0.9241261655603632
0.9241305427836801
0.924971651117975
0.9256877460417351
0.9243972142912665
0.9221509642116319
0.9187028919767932
0.9149871388368808
0.9086706807153256
0.8993523548634583
0.8856284023590096
0.8704269115144959
0.854715502466115
0.8410810712773494
0.8279695513343351
0.815493451105358
0.8029799480927251
0.7918567247574486
0.7832292450074781
0.7778953920726599
0.7749230571707892
0.7732813983265414
0.7721306254518024
0.771893343268732
0.7738457391301213
0.7783823223869536
0.7852261971432176
0.7926420427493244
0.7998378534679979
0.8063397959496479
0.8125617018192268
0.818891259435293
0.8246556667529998
0.8289325086681391
0.8310875985926288
0.8324874201068571
0.8351294941298165
0.8401295495066833
0.8469238388218893
0.8535080200346228
0.8588097695441768
0.8640209800750256
0.8707185678726117
0.8794422032461604
0.8889680971972234
0.89749233989827
0.9043145889092029
0.9094038205803892
0.9150462461189791
0.9216328025489962
0.9300730642151676
0.9373205266082808
0.9430510726109332
0.9476520235863473
0.9532920149966984
0.9603077001112458
0.9681361919299459
0.9749783392135537
0.9808873079726933
0.9858688385932274
0.991096466995319
0.9971262025244515
1.0027430316379815
1.0063986309566526
1.0069824041456876
1.0053499371693324
1.0032922930603254
1.0015793409889604
0.9998557175906542
0.9965302265150859
0.991689208297619
0.9867075724041542
0.9841284133038584
0.9850029367166043
0.9887679379438544
0.993886618624171
1.000317287614796
1.0088636089811547
1.021670457894072
1.0389114266263777
1.0607708019024644
1.085440464723738
1.1112046772135837
1.1373193821038259
1.1644932605367282
1.1931826134979322
1.2232918354506983
1.2540844498700585
1.2843102986063781
1.3142747471373484
1.3430240256033978
1.3689099564557323
1.3896653179714962
1.4031785329974686
1.4101389097161445
1.4146510076639625
1.4212042863162881
1.4313745068344321
1.4444754986020523
1.4565991064130677
1.4649875270069825
1.4684628257137329
1.4699714329128555
1.4695690372103463
1.468527952889914
1.4649151691087723
1.4602790112612456
1.4546239721915897
1.4509828470440205
1.4495714331686318
1.451087474129928
1.4527648830709348
1.4537850237134762
1.453988146969953
1.4555572652374915
1.4587240569541506
1.4626714862630792
1.4646362741943946
1.464127943765125
1.462047916142551
1.46087515035454
1.4620402383867526
1.4637689684206403
1.4643724382918373
1.4622715407314266
1.4590769984200702
1.4570715863565336
1.457219782649782
1.459084343321058
1.46000726136207
1.45897362736588
1.4570689273393098
1.4564835615996583
1.4583990126709343
1.4614149114187671
1.4634069885124108
1.4637928782304668
1.462983278034142
1.463916242375949
1.4667686684005647
1.4703497574749407
1.4720447354144217
1.4707034859399948
1.4672158808410423
1.4633936058406671
1.460149416341059
1.4564308730160558
1.4502098964955823
1.440450802259904
1.429090627526298
1.4179954287881953
1.408255245958123
1.3987969691704483
1.3871441330851981
1.3733414317614794
1.3579556659461225
1.343503168407216
1.3311501422673373
1.3202896370024555
1.3085175018626554
1.295199586461953
1.2808962775071202
1.2686122045484498
1.2583132573826599
1.2494322307500207
1.2393221028556205
1.227522042484913
1.2142628341072577
1.2016879424185831
1.1901230456263463
1.178277098962543
1.1640178267766832
1.1468910198295281
1.1272646219936278
1.1073550635573985
1.0886738851187827
1.0712717776708809
1.0532445966892683
1.034735088249527
1.0167331911100779
1.001097013910398
0.9888513000396695
0.9789148466644001
0.9694863896632513
0.9598484107835437
0.950283073012713
0.9427064472267785
0.9376055343306416
0.9342412885818022
0.9307442079890547
0.9264272947095752
0.9220639215304959
0.9188359145837997
0.9173129096651329
0.9166575924843865
0.9157698467342763
0.9137323234559582
0.9113461925478403
0.9100008711679074
0.9106698763587852
0.9121650429589897
0.913647327777655
0.9137928868837343
0.9138093279633769
0.9148297440223355
0.9178275527387979
0.922086162496897
0.9262054784905193
0.9290502056986419
0.9314720830605484
0.9343119717522651
0.9386950601163816
0.9435269227176004
0.9473525207929927
0.9487290083420268
0.9483238014661783
0.9475771808085659
0.946394093895062
0.9441595824067629
0.9393699343729712
0.931288501241255
0.9213058251260025
0.9108116801776552
0.9001052031473413
0.8893724685783386
0.8784523203634783
0.8677271047033466
0.8576151924197289
0.8481234670547912
0.8390888354402097
0.8305213736009145
0.8210679493347608
0.810757189329711
0.7996883609823849
0.7891753030344549
0.7793191539080438
0.770255771553948
0.7604734641543442
0.7501510500068298
0.7390425014786305
0.7289794520446453
0.7195293185888296
0.7108637803521822
0.7013388786094404
0.6916558280950397
0.6815104036199422
0.6722741013913635
0.6630485378071647
0.6542233392627635
0.6450795797536278
0.63636931027903
0.6269556301672797
0.6182067428961981
0.6098716374570263
0.6027872449725834
0.5954211334777236
0.5877485464221613
0.5801579766457746
0.5730957414295074
0.566897151255112
0.5615672538155789
0.5569882281322659
