0.45998083637399545
0.45923792029359517
0.45869606862964796
0.45796051793518633
0.4575454933702185
0.45759521692515637
0.4585718416986348
0.45896473403817745
0.45993159187056865
0.4601378708139415
0.46216760094144194
0.46383681407234106
0.4678365615925502
0.4706812677201384
0.4753981363599798
0.47791361526083825
0.482104275606112
0.4849577737532679
0.4894069649840322
0.49172753328259644
0.4941759445219122
0.4946637956723961
0.4962010524271624
0.4970329143132497
0.4988316792074164
0.49877944379013023
0.4985342341443611
0.4964807125654126
0.49553733169122816
0.4941329968701592
0.49432872958705903
0.4931875650508705
0.49277585831554943
0.49121673704645635
0.49164040641657625
0.4922639614364223
0.4947587449704056
0.49633363091521077
0.49836673790737257
0.49942160072681074
0.5023584073054879
0.5059330294005788
0.5113343268604745
0.5158122549752493
0.5208490197968996
0.5249908830041036
0.5305304867987365
0.5359113361581421
0.5424592348298519
0.5480566675404007
0.5537693597690883
0.5586340936752225
0.5650383924818148
0.5720207000375115
0.5803626143840438
0.5874272163809677
0.5937676302466592
0.5983711210848741
0.6038906669267352
0.609815315217307
0.6179125166819999
0.6260189338170143
0.6351596843768254
0.6443452112627571
0.6558028846815616
0.6682418227305125
0.6822323155458235
0.6943761894774271
0.7046594585523293
0.7120614069376765
0.7191364479309901
0.7255966295847466
0.7321821182264023
0.7373357932743069
0.7421175532790882
0.7461474208680251
0.7514873804165437
0.7569691835182365
0.7623868729546922
0.7648530766528361
0.7650175208805297
0.7628264184518548
0.7612516929029494
0.76024822457383
0.7604692282434781
0.7593910421900746
0.7569903753786653
0.7523171613652907
0.7468936782606573
0.7396731519286739
0.7307356664249368
0.7182603643475733
0.7037404023473006
0.6879507789701633
0.673591057039865
0.6609068838353712
0.6501965180248483
0.6393898712509002
0.6289666370441174
0.6182904296987562
0.609332274438723
0.6013515581481211
0.5948203399127874
0.5877080920696842
0.5807348399614587
0.573281534174993
0.5675915197947358
0.563156157982929
0.5603842730416736
0.5571704379392021
0.5536469987438726
0.5494361061622868
0.5462826608527708
0.5438687836506322
0.5426170525185637
0.5406210984277571
0.5384444535783202
0.5353876392710203
0.533407910892793
0.5320671373058928
0.5315724804865539
0.5301411063644421
0.5281883326279562
0.5254901725097886
0.5238846492435981
0.5230169578862244
0.5232420562465543
0.5228573772100968
0.5219992642374073
0.5205091357883622
0.5197939486330616
0.5200903606669538
0.5211568567227898
0.5216126706802229
0.5212006603759604
0.520286100481747
0.5203324426245935
0.5213875137256366
0.5231350442406176
0.5241455598666301
0.5242166232015024
0.5236103201140098
0.5236119393687513
0.5245026251507355
0.5258438686835897
0.526433338839858
0.5259034646131638
0.5252546964475282
0.5253383817598481
0.5269166797105888
0.5288215881432469
0.5304934931688444
0.531092657061172
0.5316283300363718
0.5326780774058345
0.5352807006621016
0.5383506526304422
0.5405676249016879
0.5427331307530849
0.5454146177295003
0.5500954432693399
0.5563322988030468
0.564091957029626
0.5729533709563295
0.5821732943496664
0.59275764373015
0.6061476858832323
0.6223356169281937
0.6413411078295936
0.6610978937121252
0.6814313267601215
0.7023261566096941
0.7252453533926827
0.7496627603073771
0.77381162414774
0.7935328630627734
0.8054451995827614
0.8101611579241763
0.812163231632478
0.8149196753036623
0.8195696127755221
0.8238132111153497
0.8270370155213747
0.8294994579564349
0.833626928148854
0.8393106982326713
0.8460253809109262
0.8514005767173468
0.8548872907761945
0.8561779568666689
0.8562149378025551
0.8557477262061951
0.8543251134915358
0.8521362131139079
0.8488368946521953
0.8466578906764003
0.8469836665569368
0.8514664075736013
0.8585569607069113
0.8666566972042906
0.8738950082842136
0.8810124580506645
0.8881033294166214
0.8952518214995542
0.9003933133671722
0.9026051233911074
0.9002461237416717
0.894824270810333
0.8870703018408445
0.8786619133997164
0.8689543776062659
0.8577158720842419
0.8448191696303238
0.8317678965681007
0.8202099935724805
0.8111179169817808
0.8034237122365072
0.796039390259622
0.7881770162146767
0.7808988768176355
0.7750395174181656
0.7717108069860201
0.770022748546044
0.7687961031663312
0.7674808393961907
0.7669815793311624
0.7679721791717774
0.7712463877159134
0.775304079287574
0.7793925176294862
0.7822233983168319
0.7853118948768268
0.7898649942872837
0.7969614290670183
0.8050999007366065
0.8137752115338034
0.8217459529687874
0.8304380127967645
0.8403291173977425
0.8522321477302245
0.8652160885184706
0.8777762987877327
0.8882470905795282
0.8974266950918347
0.9054565644949853
0.9131970690905036
0.9187083122954391
0.9216925014137135
0.9207253771837239
0.918437848425437
0.9161514086995713
0.9162128244731574
0.9170539008189015
0.9177664867206896
0.9164896349847382
0.9142489690483689
0.9108546818301501
0.9072075596552329
0.9009009346813449
0.8916158386164114
0.8779474508373039
0.8628921582912475
0.8473225867420306
0.8338038065433221
0.820808027070856
0.8084454403068119
0.7960191554576115
0.7849817994140251
0.7764360407924531
0.7711388340247948
0.7682307258825104
0.766605876982702
0.7654809537735269
0.7652417033613957
0.7671864196691849
0.7717304325663379
0.7785420333724603
0.7858900446025109
0.7929982054546407
0.7994161692393126
0.8055990488281655
0.8119060307757372
0.8176695979320286
0.8219313149937103
0.8240886694409942
0.8254532746724819
0.8280903962483099
0.8330472752881727
0.8398168452182115
0.8463670958149335
0.8515964671699738
0.8567840583071
0.8633681368366329
0.8720397639568026
0.8814946408897204
0.890036912839455
0.8968871852808479
0.9019457606314718
0.9075890853744991
0.9141250325453111
0.922551428488744
0.9297937882666549
0.9355001624525802
0.94006954979833
0.9456582827205908
0.9525888155064745
0.9603635596427258
0.9671988338499996
0.9731763868315616
0.9781590517541529
0.9833694413353664
0.9893892593262815
0.9950097568588587
0.9985973733794985
0.9992057830628557
0.9976031077246844
0.9957006687542223
0.9939596477860206
0.99228482803212
0.9889470880797904
0.9842098073632677
0.9792406501186302
0.976708811424943
0.9775520681011334
0.9813947532042616
0.9865076052087995
0.9930124842813453
1.001537751272439
1.0143367866938535
1.0315943432145727
1.0534657063959205
1.0781469584712529
1.1039508102457063
1.1302151087818872
1.1576131395194988
1.186594231029327
1.2170355029853381
1.2483082635969565
1.2790470817226416
1.3095352788874588
1.3388513141334635
1.365227485642356
1.3865188306754903
1.4003779828606282
1.4074471537230406
1.4120451971845192
1.4186801423440636
1.4291534379336648
1.4424318549302193
1.4547993058194322
1.4634354648020025
1.4670122585846577
1.4685481431298033
1.46801411546602
1.46690271491104
1.4632137447287776
1.4585041016722797
1.4528380332642914
1.4491190749704537
1.44770508360755
1.4491593842768749
1.4508528746822522
1.4519056622494908
1.4521582250774283
1.4538052440035836
1.4570111717786487
1.4611436777551003
1.4632001370764987
1.4626642468331421
1.4606077000282418
1.4595484100442155
1.4606480499542849
1.4622367110072196
1.462777042724579
1.4607269962268283
1.457677232908604
1.4555716163230938
1.455904026841955
1.4575299643870718
1.4584718591143786
1.457279571065294
1.4555032384853561
1.4548790196291117
1.4567971902072698
1.4598526984064621
1.4618861297420467
1.46229686460687
1.4613576011452538
1.462292995701809
1.4652668871263286
1.4692607304171668
1.4710160670445394
1.4696794467669712
1.4658564185829068
1.4619233788566939
1.4585433898959455
1.454876252535311
1.4485968222104373
1.4387462815232184
1.4271833954711326
1.4159057843670757
1.4059349463175275
1.3961106315559733
1.3841155899558886
1.3699579655828715
1.354116420252734
1.3393278896566039
1.3266267804424028
1.3155388945131439
1.3034613866726783
1.2897660004650953
1.2752575695226085
1.2627024319722528
1.2522613334125703
1.2430382773098565
1.2327656372571794
1.2207941418743065
1.2074867651534786
1.194664720710328
1.182950819672925
1.1708927192520326
1.156429025783744
1.139134363678623
1.1193927430643094
1.0994591532966502
1.0806590855364515
1.0632102866484074
1.0451130439112069
1.026623135742455
1.0085681016226873
0.9929091787009174
0.9806664439515407
0.9707367707374528
0.9614198710263497
0.9518067980333461
0.9422844614999333
0.9347133842296437
0.9296415143327
0.9263142623281803
0.9228680217384233
0.9185658981542366
0.9142449591916003
0.9110178388880049
0.9095214006116007
0.9088500761550113
0.907954940872106
0.9059222810780724
0.9036288001496436
0.9023288326524233
0.9029513316090387
0.904440074628353
0.9058899173217245
0.9060341667734932
0.9060599730063434
0.9070650814451274
0.9101239417249809
0.9142671436032979
0.9183505074897456
0.9211380428458287
0.923511997081974
0.9263568871471056
0.9307212772704674
0.9355742121736906
0.939402729865292
0.9407107295918791
0.9403386854296353
0.9394751646972563
0.9383203303748355
0.9360132299696566
0.9313519510044855
0.9233364212542741
0.9134174172572911
0.9028405853724002
0.8921045049353438
0.8815403156477897
0.8708331463821393
0.8602058557831858
0.8501515366015672
0.840711194137841
0.8319006774375673
0.8233073534574236
0.8140579821446943
0.8037950762747312
0.792954547812622
0.7827368832870408
0.7730212191520791
0.7641270629381779
0.7542965083762027
0.7441992939811368
0.733213620786591
0.7229682122693136
0.7134237600671622
0.7046384450766284
0.6953947469557399
0.6858216290780749
0.6758013754572529
0.6665565551438829
0.6574510719318677
0.6487507076048484
0.6396780769880801
0.6309523718129013
0.6215660113540872
0.6129254011435942
0.6046734838157392
0.597719984738022
0.5904940714498175
0.5828772287508687
0.5755656367157086
0.568249635507856
0.5620980068540605
0.5565559609667504
0.5523860730069118
