0.07649845391520521
0.06782426753526431
0.05941742277536116
0.05232770586817795
0.04406703540675175
0.03746884578753953
0.029738550408301024
0.02333459632105548
0.015770718585849188
0.01008536600204202
0.0049265669576824085
0.002088833491873187
4.673390487762363E-4
6.369110919419782E-5
-0.0
-0.0
-0.0
-0.0
-0.0
-0.0
-0.0
-0.0
-0.0
-0.0
-0.0
-0.0
-0.0
-0.0
-0.0
-0.0
-0.0
-0.0
-0.0
-0.0
-0.0
-0.0
-0.0
-0.0
-0.0
-0.0
-0.0
-0.0
-0.0
-0.0
-0.0
-0.0
-0.0
-0.0
-0.0
-0.0
-0.0
-0.0
-0.0
-0.0
-0.0
-0.0
-0.0
-0.0
-0.0
-0.0
-0.0
-0.0
-0.0
-0.0
-0.0
-0.0
-0.0
-0.0
-0.0
-0.0
-0.0
-0.0
-0.0
-0.0
-0.0
-0.0
-0.0
-0.0
-0.0
-0.0
-0.0
-0.0
-0.0
-0.0
-0.0
-0.0
-0.0
-0.0
-0.0
-0.0
-0.0
-0.0
-0.0
-0.0
-0.0
-0.0
-0.0
-0.0
-0.0
-0.0
-0.0
-0.0
-0.0
-0.0
-0.0
-0.0
-0.0
-0.0
-0.0
-0.0
-0.0
-0.0
-0.0
-0.0
-0.0
-0.0
-0.0
-0.0
-0.0
-0.0
-0.0
-0.0
-0.0
-0.0
-0.0
-0.0
-0.0
-0.0
-0.0
-0.0
-0.0
-0.0
-3.037683504938918E-7
-3.037328931620734E-7
-3.037806743974287E-7
-0.0
-0.0
-0.0
-0.0
-0.0
-0.0
-0.0
-0.0
-0.0
-0.0
-0.0
-0.0
-0.0
-0.0
-0.0
-0.0
-0.0
-0.0
-0.0
-0.0
-0.0
-0.0
-1.3556513576583074E-4
-1.3560938219263726E-4
-1.3560459099248794E-4
-0.0
-0.0
-0.0
-0.0
-0.0
-0.0
-0.0
-0.0
-0.0
-0.0
-0.0
-0.0
-0.0
-0.0
-0.0
-0.0
-0.0
-0.0
-0.0
-0.0
-0.0
-0.0
-0.0
-0.0
-0.0
-0.0
-0.0
-0.0
-0.0
-0.0
-0.0
-0.0
-0.0
-0.0
-0.0
-0.0
-0.0
-0.0
-0.0
-0.0
-0.0
-0.0
-0.0
-0.0
-0.0
-0.0
-0.0
-0.0
-0.0
-0.0
-0.0
-0.0
-0.0
-0.0
-0.0
-0.0
-0.0
-0.0
-0.0
-0.0
-0.0
-0.0
-0.0
-0.0
-0.0
-0.0
-0.0
-0.0
-0.0
-0.0
-0.0
-0.0
-0.0
-0.0
-0.0
-0.0
-0.0
-0.0
-0.0
-0.0
-0.0
-0.0
-0.0
-0.0
-0.0
-0.0
-0.0
-0.0
-0.0
-0.0
-0.0
-0.0
-0.0
-0.0
-0.0
-0.0
-0.0
-0.0
-0.0
-0.0
-0.0
-0.0
-0.0
-0.0
-0.0
-0.0
-0.0
-0.0
-0.0
-0.0
-0.0
-0.0
-0.0
-0.0
-0.0
-0.0
-0.0
-0.0
-0.0
-0.0
-0.0
-0.0
-0.0
-0.0
-0.0
-0.0
-0.0
-0.0
-0.0
-0.0
-0.0
-0.0
-0.0
-0.0
-0.0
8.552494595968426E-5
0.001487955652138444
0.010319275667031082
0.026066708817208527
0.043782966683684935
0.05190180051077937
0.05096834647723562
0.0490583675377297
0.045586125895676864
0.04502876079077478
0.04437659590513371
0.047245372824002235
0.05110271520098274
0.0484566086008305
0.047674442430902714
0.0476849607409552
0.047935409062346605
0.04814886209101056
0.045215142689132196
0.044810757254609514
0.04103681836246966
0.03504755163023583
0.028217232796315213
0.022588171611130702
0.017293305258273085
0.012908782488602718
0.008648696882842444
0.006510443393043033
0.005929516552439773
0.006745273816461538
0.00857905434093529
0.013075763021436931
0.02044839607432711
0.03241313296897649
0.04861832354378832
0.06937692912389802
0.09255334329058712
0.11874151065152252
0.14569005167192878
0.17439490540206934
0.20412837684147814
0.23519252377756433
0.2673469842540307
0.3012044234511338
0.3342252441100312
0.36581742204297546
0.3933750769807449
0.41599009314252117
0.4304769237472376
0.43860014315806023
0.44433058336543685
0.4527630513502851
0.46396209167638014
0.4781763936352287
0.4914858860779287
0.5018470968276568
0.5072294719377404
0.5101098877008021
0.5099133569821235
0.508935785074162
0.5051691725441763
0.500390475328249
0.49441331916813047
0.49117409274968843
0.49031190012699
0.4923980750695249
0.4944274798999121
0.496473199716484
0.4978909301673444
0.5006775588361561
0.5041249958553486
0.5082708240800855
0.510264416073706
0.510865525929372
0.5099414197216452
0.5100490228854573
0.5119580655757999
0.5138550007062165
0.5145224963363874
0.5131930971645391
0.5112293193197688
0.5106185369436271
0.5110990724363556
0.5133653685705291
0.5145751040173155
0.5150385705030229
0.5142650739454339
0.5151949458295766
0.5172786027496048
0.5210709781197123
0.523421110531373
0.5255368394624534
0.5255347601996415
0.5273470188031117
0.5300143853002054
0.5342395448702847
0.5358656981739499
0.53509269515623
0.5317787385834954
0.5282014085359857
0.524641786199297
0.520441685835742
0.5135027387681651
0.5037387011100186
0.4922402086449831
0.4812294702717998
0.47026475985683625
0.45943269839019685
0.4467676032863576
0.4325441251761691
0.41657700977357287
0.40174348433800955
0.38786088294365667
0.37573243416773267
0.36244460532921186
0.34940973020214033
0.33534068030661807
0.3236239863724451
0.31193933307059707
0.3024353602949576
0.29126075841930343
0.280139636490924
0.266824373531855
0.25473517927630396
0.24178841636977252
0.22946251391032077
0.2136668286928965
0.19718311038361816
0.1774224252295181
0.15890551786784077
0.13912341596573352
0.12161745777125624
0.10333234367298709
0.08707151871996127
0.07088382885563191
0.057960567300305174
0.045712594082035964
0.036544789567991065
0.0273223495135371
0.02071265199114298
0.014174280965131396
0.010475293575410426
0.00730569297340822
0.006140126050877324
0.004635450373391052
0.003966222753816793
0.0030528827098989172
0.0029948513269803067
0.0026989056841337307
0.0029790947842507657
0.0028786697733217677
0.00317573074154144
0.0031264384508070116
0.0037707378731438525
0.004351892555554306
0.005895834627185899
0.0069469080668868735
0.009297774601142226
0.011041783338995647
0.015351053832325524
0.019529317697214055
0.026921796572193745
0.0334931045303421
0.04291442869892675
0.05160802899456849
0.06390401612168707
0.07630373631260788
0.09291089639812303
0.10909715300396788
0.1290943203173863
0.1493101538842329
0.17464298985286225
0.2010021373500709
0.23187857712149237
0.26152969204166543
0.2939472215224938
0.323705851442583
0.35740537424226837
0.388841809902339
0.4242035187232856
0.4550010465619668
0.4881072307126544
0.5153067372077181
0.545104269228271
0.5714377593045368
0.600177341979106
0.6238397271009478
0.6461876019644422
0.6636187555803549
0.683132963248361
0.7008280793658165
0.7210968304231503
0.7369717475541959
0.7527873580749025
0.7605538610231993
0.7626716974684031
0.7569533702800624
0.7492543711606557
0.7412383578247181
0.731349965707712
0.7207178020081928
0.7102050903971818
0.7008449163219123
0.6918879065388268
0.6824900184176058
0.6722799662256773
0.6616056841800607
0.6516807206056155
0.6428256078193442
0.6348848332641898
0.6267916577385881
0.6179143078655635
0.6091855542925702
0.6011500273260296
0.5943099540993896
0.5882392735266391
0.5825771619722578
