0.07652520503222629
0.06786459541253394
0.059470271178514375
0.052363836465320085
0.04411058290495979
0.03750347508035314
0.02978051527457188
0.023382590105407736
0.01583833948212548
0.010136670852754858
0.004977375490891572
0.0020976420261788835
4.7403501704953684E-4
5.34368013233881E-5
-0.0
-0.0
-0.0
-0.0
-0.0
-0.0
-0.0
-0.0
-0.0
-0.0
-0.0
-0.0
-0.0
-0.0
-0.0
-0.0
-0.0
-0.0
-0.0
-0.0
-0.0
-0.0
-0.0
-0.0
-0.0
-0.0
-0.0
-0.0
-0.0
-0.0
-0.0
-0.0
-0.0
-0.0
-0.0
-0.0
-0.0
-0.0
-0.0
-0.0
-0.0
-0.0
-0.0
-0.0
-0.0
-0.0
-0.0
-0.0
-0.0
-0.0
-0.0
-0.0
-0.0
-0.0
-0.0
-0.0
-0.0
-0.0
-0.0
-0.0
-0.0
-0.0
-0.0
-0.0
-0.0
-0.0
-0.0
-0.0
-0.0
-0.0
-0.0
-0.0
-0.0
-0.0
-0.0
-0.0
-0.0
-0.0
-0.0
-0.0
-0.0
-0.0
-0.0
-0.0
-0.0
-0.0
-0.0
-0.0
-0.0
-0.0
-0.0
-0.0
-0.0
-0.0
-0.0
-0.0
-0.0
-0.0
-0.0
-0.0
-0.0
-0.0
-0.0
-0.0
-0.0
-0.0
-0.0
-0.0
-0.0
-0.0
-0.0
-0.0
-0.0
-0.0
-0.0
-0.0
-0.0
-0.0
3.341454309962916E-7
3.3410642787400494E-7
3.341589872811649E-7
-0.0
-0.0
-0.0
-0.0
-0.0
-0.0
-0.0
-0.0
-0.0
-0.0
-0.0
-0.0
-0.0
-0.0
-0.0
-0.0
-0.0
-0.0
-0.0
-0.0
-0.0
-0.0
-1.3556513576583074E-4
-1.3560938219263726E-4
-1.3560459099248794E-4
-0.0
-0.0
-0.0
-0.0
-0.0
-0.0
-0.0
-0.0
-0.0
-0.0
-0.0
-0.0
-0.0
-0.0
-0.0
-0.0
-0.0
-0.0
-0.0
-0.0
-0.0
-0.0
-0.0
-0.0
-0.0
-0.0
-0.0
-0.0
-0.0
-0.0
-0.0
-0.0
-0.0
-0.0
-0.0
-0.0
-0.0
-0.0
-0.0
-0.0
-0.0
-0.0
-0.0
-0.0
-0.0
-0.0
-0.0
-0.0
-0.0
-0.0
-0.0
-0.0
-0.0
-0.0
-0.0
-0.0
-0.0
-0.0
-0.0
-0.0
-0.0
-0.0
-0.0
-0.0
-0.0
-0.0
-0.0
-0.0
-0.0
-0.0
-0.0
-0.0
-0.0
-0.0
-0.0
-0.0
-0.0
-0.0
-0.0
-0.0
-0.0
-0.0
-0.0
-0.0
-0.0
-0.0
-0.0
-0.0
-0.0
-0.0
-0.0
-0.0
-0.0
-0.0
-0.0
-0.0
-0.0
-0.0
-0.0
-0.0
-0.0
-0.0
-0.0
-0.0
-0.0
-0.0
-0.0
-0.0
-0.0
-0.0
-0.0
-0.0
-0.0
-0.0
-0.0
-0.0
-0.0
-0.0
-0.0
-0.0
-0.0
-0.0
-0.0
-0.0
-0.0
-0.0
-0.0
-0.0
-0.0
-0.0
-0.0
-0.0
-0.0
-0.0
-0.0
6.963677937417343E-5
0.0014658401865815364
0.010290798403541673
0.026049145616459962
0.043766976117757636
0.05188200155120647
0.050952108110353236
0.04903784815882812
0.04555967675723977
0.04500145317512847
0.04433845229069514
0.04720816000419932
0.051058354737309596
0.04842400289895787
0.04764106716989284
0.04764347945772378
0.04788277023813102
0.04808514605003543
0.04514023127058709
0.0447327154745309
0.040969712098033115
0.03499997978133837
0.028159155484017224
0.0225242345695918
0.017236451912360545
0.01289951813791523
0.008659590396285765
0.006521130344289944
0.0059179963457277615
0.006764345354939624
0.008608571984874995
0.01309029235723691
0.020416564404319285
0.032376452212753225
0.04860053708798733
0.06937450567389813
0.09253793131536914
0.11872044786024341
0.14566602502516873
0.17438373712377941
0.2041291302906067
0.23519145338945263
0.2673531408249996
0.3012058825032161
0.334236134300098
0.36582779416437455
0.39340488348084324
0.4160458752645698
0.43054134272929584
0.43867442409775204
0.444398458493198
0.45284191694715703
0.4640721538395527
0.47830720027984086
0.4916295050868699
0.5019546656330408
0.5073525229792665
0.5101974717650062
0.5100226473758371
0.5090148415480048
0.5052702433077803
0.5004677369000984
0.49450565430683757
0.49129423121649446
0.4904444009401391
0.49250884573658654
0.49451827217011324
0.4965905385792662
0.4980340797264214
0.5008465793245794
0.5043109520933207
0.5084295294084278
0.5104135021609458
0.5110013423352451
0.5100937169546136
0.5101852051878651
0.5120680474100398
0.5139671003957486
0.5146202875397199
0.5133087876577008
0.5113477413847544
0.5107486302476972
0.5112468523096602
0.5135124517467955
0.5147258593634935
0.5151824877416644
0.514434290771433
0.5153573286282146
0.5174297502825198
0.5212249050828348
0.5235903979641978
0.525703045147602
0.5256942689731924
0.5274958976576685
0.5301673463112995
0.5343993024135113
0.5360487451009793
0.5352836987224318
0.531966807449943
0.5283896954285637
0.5248098454371453
0.5205896501278588
0.5136448021867732
0.5038797247258342
0.49239000958238144
0.4813419474110809
0.47034933005074725
0.45949531698215373
0.4468502027447757
0.4326265941915919
0.41664009016548703
0.40176666905252817
0.38789662415485926
0.37576837838738586
0.3624826496340759
0.34942093821712633
0.33533390654576145
0.3236033097523074
0.3119281166611567
0.3024249047743087
0.2912455812114182
0.2801147684773735
0.2667962111924752
0.2547164417357193
0.24176495752066435
0.22942765833267265
0.21364149597338913
0.19714350760636232
0.17738833099877163
0.1588545066025343
0.13907892967729893
0.12158706753661971
0.10331525645730223
0.08707259540021771
0.07088050251369508
0.057964022708784056
0.04571443345716456
0.03654199737703393
0.02730640297446421
0.020690415886945517
0.014200252872930726
0.010535000099797815
0.007371533163290069
0.006164774627239144
0.004643064393782551
0.003972983049077623
0.0030900523082732995
0.0030442483754258543
0.002764855772353766
0.0030192456666641825
0.002918712049385641
0.003198530840640978
0.0031597289019887355
0.003785587611743155
0.004363506797374907
0.005922456787373474
0.007001360228962707
0.009367674659079095
0.011087102209451987
0.015384415077156991
0.01955154502292645
0.026937695236199512
0.03347637534024888
0.04288605203779912
0.051578256922029705
0.0638896221689768
0.07631092312706582
0.09294085935603312
0.10915341935724493
0.12916471500116958
0.14939418978482183
0.17471808261289598
0.20108964776163918
0.23198828589048037
0.2616731303705745
0.29412478475313764
0.3238853874255211
0.3576177933141246
0.38905949624570707
0.42443769647713125
0.45523003723999467
0.48836028998042513
0.5155838989121669
0.5454195800104653
0.5717468031522149
0.6004906060682572
0.6241185094333855
0.646455198517365
0.6638733007450368
0.6833936105043796
0.7010735666929677
0.7213512678065835
0.7372189125890293
0.7530778012401247
0.7608589079132116
0.7629837069532704
0.7572386687819648
0.7495446487458421
0.741552829654536
0.7317155757071219
0.7210831282700432
0.7105668210619774
0.701214785567512
0.6922685182384272
0.6828880080315046
0.6726488463894943
0.6619927489162409
0.6520977379988306
0.6432640248413445
0.6353170796520173
0.6272397389623526
0.6183541353998396
0.609613440760604
0.6015713863257496
0.5946842317973897
0.5886490089565404
0.583048845331355
