0.07673520155390258
0.06807391736356687
0.059675517515014355
0.052574675327419614
0.044306819052130166
0.03770823277361108
0.029981934853007427
0.023588772451606718
0.016006013622584907
0.010251534968830247
0.005016820633716782
0.002105109608686961
4.717270979580651E-4
5.733523007896304E-5
-0.0
-0.0
-0.0
-0.0
-0.0
-0.0
-0.0
-0.0
-0.0
-0.0
-0.0
-0.0
-0.0
-0.0
-0.0
-0.0
-0.0
-0.0
-0.0
-0.0
-0.0
-0.0
-0.0
-0.0
-0.0
-0.0
-0.0
-0.0
-0.0
-0.0
-0.0
-0.0
-0.0
-0.0
-0.0
-0.0
-0.0
-0.0
-0.0
-0.0
-0.0
-0.0
-0.0
-0.0
-0.0
-0.0
-0.0
-0.0
-0.0
-0.0
-0.0
-0.0
-0.0
-0.0
-0.0
-0.0
-0.0
-0.0
-0.0
-0.0
-0.0
-0.0
-0.0
-0.0
-0.0
-0.0
-0.0
-0.0
-0.0
-0.0
-0.0
-0.0
-0.0
-0.0
-0.0
-0.0
-0.0
-0.0
-0.0
-0.0
-0.0
-0.0
-0.0
-0.0
-0.0
-0.0
-0.0
-0.0
-0.0
-0.0
-0.0
-0.0
-0.0
-0.0
-0.0
-0.0
-0.0
-0.0
-0.0
-0.0
-0.0
-0.0
-0.0
-0.0
-0.0
-0.0
-0.0
-0.0
-0.0
-0.0
-0.0
-0.0
-0.0
-0.0
-0.0
-0.0
-0.0
-0.0
1.6707268338588864E-7
1.6705318178403074E-7
1.670794615016095E-7
-0.0
-0.0
-0.0
-0.0
-0.0
-0.0
-0.0
-0.0
-0.0
-0.0
-0.0
-0.0
-0.0
-0.0
-0.0
-0.0
-0.0
-0.0
-0.0
-0.0
-0.0
-0.0
-1.3556513576583074E-4
-1.3560938219263726E-4
-1.3560459099248794E-4
-0.0
-0.0
-0.0
-0.0
-0.0
-0.0
-0.0
-0.0
-0.0
-0.0
-0.0
-0.0
-0.0
-0.0
-0.0
-0.0
-0.0
-0.0
-0.0
-0.0
-0.0
-0.0
-0.0
-0.0
-0.0
-0.0
-0.0
-0.0
-0.0
-0.0
-0.0
-0.0
-0.0
-0.0
-0.0
-0.0
-0.0
-0.0
-0.0
-0.0
-0.0
-0.0
-0.0
-0.0
-0.0
-0.0
-0.0
-0.0
-0.0
-0.0
-0.0
-0.0
-0.0
-0.0
-0.0
-0.0
-0.0
-0.0
-0.0
-0.0
-0.0
-0.0
-0.0
-0.0
-0.0
-0.0
-0.0
-0.0
-0.0
-0.0
-0.0
-0.0
-0.0
-0.0
-0.0
-0.0
-0.0
-0.0
-0.0
-0.0
-0.0
-0.0
-0.0
-0.0
-0.0
-0.0
-0.0
-0.0
-0.0
-0.0
-0.0
-0.0
-0.0
-0.0
-0.0
-0.0
-0.0
-0.0
-0.0
-0.0
-0.0
-0.0
-0.0
-0.0
-0.0
-0.0
-0.0
-0.0
-0.0
-0.0
-0.0
-0.0
-0.0
-0.0
-0.0
-0.0
-0.0
-0.0
-0.0
-0.0
-0.0
-0.0
-0.0
-0.0
-0.0
-0.0
-0.0
-0.0
-0.0
-0.0
-0.0
-0.0
-0.0
-0.0
-0.0
7.557578700121366E-5
0.001578532596742698
0.010682614057835806
0.02672182818258107
0.04463817699148267
0.05276558469800985
0.05185505260737225
0.049945605512871576
0.04648334753836962
0.04592707835865043
0.045280155674510304
0.048158423707891036
0.052019549716689484
0.04938516570384563
0.048617484180441733
0.048632989666898996
0.04889307675371683
0.04909555609159335
0.04616790533376461
0.045772199716853264
0.04200908533617503
0.036028999823410165
0.029192934679132216
0.02357777108528683
0.01822168191456209
0.013738931416688202
0.009343267025169452
0.007128142686168498
0.006502940424255653
0.0073774413876176335
0.009310365402631759
0.013975713749957607
0.02145317565840246
0.033522596777742546
0.04976638453630756
0.07057031995468666
0.09378694581073342
0.1200375679142427
0.14704069585945012
0.17578371044431343
0.2055510764995542
0.23660868410180833
0.2687340783245087
0.3025050448125831
0.33545954056037647
0.3669465080634277
0.39444996704231394
0.41699586438973446
0.43144634601597376
0.439535315923404
0.44523898525281635
0.45364427210432695
0.46481696680459056
0.4789582555134923
0.49217884189344896
0.5024155352656882
0.5077488288732788
0.5105704303762136
0.5104122949678239
0.5094541318656497
0.5057656794428622
0.5009989877467076
0.49506264224167906
0.49187265070793723
0.4910317909522194
0.49308548877145925
0.4950861305450852
0.4971275943502736
0.4985600836683308
0.5013352412750937
0.5047595826736909
0.5088633880587407
0.510854567283291
0.5114539267946682
0.5105435463818386
0.5105790412947075
0.512461385002436
0.5143307306550763
0.5150103800922244
0.5136925301411899
0.5117594624272601
0.5111785796450216
0.5117013513714322
0.5139760722497321
0.515193309974232
0.5156274707106765
0.5148573729636615
0.515757747371593
0.5178267943009692
0.5216070835107333
0.523963072908052
0.5260747668946396
0.5260791147754015
0.5278771045050613
0.5305478973724524
0.5347503203148057
0.536407548810764
0.5356182354601876
0.5323122432710864
0.5287492110248403
0.5252256201185473
0.5210625874193439
0.5141698538445164
0.5044577213155591
0.49306030987189464
0.482089850783031
0.471179440173894
0.4603734966543225
0.4477942858129082
0.4336302683857786
0.4177057522577253
0.40289175151786716
0.38908763713812367
0.376999204207048
0.3637534294164991
0.3506892084243923
0.33663677251054386
0.3249198697577069
0.3132782211107565
0.3037830879636922
0.29262152432839317
0.28149368897030563
0.2681836978418383
0.2561035090634641
0.24316284939727803
0.23081690943594915
0.21502276820797142
0.19849771731681223
0.17871488206449215
0.16014318732033175
0.14033040536262364
0.12279631708101377
0.10447845090837354
0.08818660630982307
0.07197056261126579
0.05901767557549343
0.04675634893898028
0.03754460538196495
0.028303913123708845
0.021621802197957663
0.014992946569085399
0.011171056268615613
0.007881568789428941
0.006632160625386515
0.005018635008544439
0.004292630564901298
0.0033124939339555636
0.0032516426605542223
0.0029359906085194977
0.00322786055887467
0.0031163171741877484
0.0034328138055752387
0.003387001336876416
0.004079928670398235
0.00469810574772144
0.0063415897492552185
0.00745209859478529
0.009904285821704852
0.0116940111369494
0.016124276679895924
0.020356212104395283
0.02780327296667102
0.03435896489091176
0.04378950033912267
0.05250275845104401
0.0648191515395466
0.07725275431314231
0.09388451752166346
0.11012033637339579
0.13015058003830754
0.15040313981244988
0.1757493781872933
0.20211994938425853
0.23302429975112945
0.2627083374074007
0.2951575586153802
0.3249268987563417
0.35862763343793413
0.39006984524971616
0.4254243938537414
0.4562523841180031
0.4893500411930373
0.5165586492105123
0.5463313448754683
0.5726547877256613
0.601367859444746
0.6249533748407637
0.6472651044243768
0.6646546460202146
0.6841344273048068
0.7018007915753329
0.7220345738290839
0.7378946795266109
0.7536969283498496
0.7614709688764641
0.7635974607232923
0.7578458442133525
0.7501381245689894
0.7421408988094478
0.7322969138774934
0.7216456973560519
0.711088170571194
0.7016733525165016
0.6927356777401252
0.6833346350895748
0.6731689801271008
0.6625138529450352
0.6525922399538983
0.6436995119827732
0.6356707203340918
0.6275987611918983
0.6186862234857893
0.610003739077581
0.6019573498979474
0.5951421207885286
0.5890878293784338
0.5834707834889364
