0.07546402183355591
0.0668410192072451
0.05846471633527569
0.05135990261417801
0.04309022850136629
0.03648546940873613
0.028768983019000736
0.02235807770795702
0.014812213914679408
0.009186396380489502
0.004227096787513168
0.001663676067133089
3.014607964305227E-4
3.480977267390506E-5
-0.0
-0.0
-0.0
-0.0
-0.0
-0.0
-0.0
-0.0
-0.0
-0.0
-0.0
-0.0
-0.0
-0.0
-0.0
-0.0
-0.0
-0.0
-0.0
-0.0
-0.0
-0.0
-0.0
-0.0
-0.0
-0.0
-0.0
-0.0
-0.0
-0.0
-0.0
-0.0
-0.0
-0.0
-0.0
-0.0
-0.0
-0.0
-0.0
-0.0
-0.0
-0.0
-0.0
-0.0
-0.0
-0.0
-0.0
-0.0
-0.0
-0.0
-0.0
-0.0
-0.0
-0.0
-0.0
-0.0
-0.0
-0.0
-0.0
-0.0
-0.0
-0.0
-0.0
-0.0
-0.0
-0.0
-0.0
-0.0
-0.0
-0.0
-0.0
-0.0
-0.0
-0.0
-0.0
-0.0
-0.0
-0.0
-0.0
-0.0
-0.0
-0.0
-0.0
-0.0
-0.0
-0.0
-0.0
-0.0
-0.0
-0.0
-0.0
-0.0
-0.0
-0.0
-0.0
-0.0
-0.0
-0.0
-0.0
-0.0
-0.0
-0.0
-0.0
-0.0
-0.0
-0.0
-0.0
-0.0
-0.0
-0.0
-0.0
-0.0
-0.0
-0.0
-0.0
-0.0
-0.0
-0.0
-5.164060694191296E-7
-5.163457918881167E-7
-5.164270199870247E-7
-0.0
-0.0
-0.0
-0.0
-0.0
-0.0
-0.0
-0.0
-0.0
-0.0
-0.0
-0.0
-0.0
-0.0
-0.0
-0.0
-0.0
-0.0
-0.0
-0.0
-0.0
-0.0
-1.3556513576583074E-4
-1.3560938219263726E-4
-1.3560459099248794E-4
-0.0
-0.0
-0.0
-0.0
-0.0
-0.0
-0.0
-0.0
-0.0
-0.0
-0.0
-0.0
-0.0
-0.0
-0.0
-0.0
-0.0
-0.0
-0.0
-0.0
-0.0
-0.0
-0.0
-0.0
-0.0
-0.0
-0.0
-0.0
-0.0
-0.0
-0.0
-0.0
-0.0
-0.0
-0.0
-0.0
-0.0
-0.0
-0.0
-0.0
-0.0
-0.0
-0.0
-0.0
-0.0
-0.0
-0.0
-0.0
-0.0
-0.0
-0.0
-0.0
-0.0
-0.0
-0.0
-0.0
-0.0
-0.0
-0.0
-0.0
-0.0
-0.0
-0.0
-0.0
-0.0
-0.0
-0.0
-0.0
-0.0
-0.0
-0.0
-0.0
-0.0
-0.0
-0.0
-0.0
-0.0
-0.0
-0.0
-0.0
-0.0
-0.0
-0.0
-0.0
-0.0
-0.0
-0.0
-0.0
-0.0
-0.0
-0.0
-0.0
-0.0
-0.0
-0.0
-0.0
-0.0
-0.0
-0.0
-0.0
-0.0
-0.0
-0.0
-0.0
-0.0
-0.0
-0.0
-0.0
-0.0
-0.0
-0.0
-0.0
-0.0
-0.0
-0.0
-0.0
-0.0
-0.0
-0.0
-0.0
-0.0
-0.0
-0.0
-0.0
-0.0
-0.0
-0.0
-0.0
-0.0
-0.0
-0.0
-0.0
-0.0
-0.0
-0.0
5.535919054339951E-5
0.0012577112561043308
0.00988572456274103
0.025461824637177128
0.0431796805272772
0.05131338501938176
0.050389365508337246
0.048497434319201976
0.04502875762856205
0.04448438144861378
0.043826579123525895
0.046700975065255175
0.05055437808071537
0.047918859454224624
0.047137122748220635
0.04715256546206418
0.047400465699625985
0.047622768004646425
0.044685192518025635
0.04430387914654431
0.04054664728485493
0.034579140782316616
0.027730226931529274
0.02210209600659909
0.01679389207934051
0.012426016286449836
0.008174822443670553
0.006053771914740772
0.005475669871752809
0.006297271934364225
0.008152303157666097
0.012695355119006456
0.02010590218830751
0.03213083155348801
0.04836360672992969
0.06915655739631868
0.09232810094829293
0.1185373544234635
0.1455129527529664
0.17426074616295467
0.20401573875020548
0.23507474469810555
0.2672230842469107
0.3010550181534258
0.3340478577524711
0.36559663224177125
0.3931336182687688
0.4157398545986632
0.43021083629034373
0.4383513257684115
0.4440691561681878
0.45249936502847576
0.46368853846559344
0.4778804765131002
0.49114452821682997
0.501420557062172
0.5067858691056073
0.5096515520846933
0.5094867338932921
0.508507110236115
0.5047664357777166
0.49997416296988706
0.4940185909036925
0.4908021191159811
0.4899768346984248
0.4920379587838519
0.4940401420656668
0.49609290041923854
0.49752385297847807
0.5003207239728049
0.5037457639393966
0.5078488551145449
0.5098350037134556
0.5104375658661794
0.5095678344421697
0.5096498697492339
0.5115179232541766
0.513379246355327
0.51405167854086
0.512747610211744
0.5108054929982083
0.5101925842787803
0.510713346663011
0.5129716745920642
0.5141816978134144
0.5146035780238991
0.513836418365387
0.514782071354149
0.5168449519125613
0.5206159719997226
0.5229547580897647
0.5250809411978541
0.5250979144776593
0.5269028351493019
0.5295747486948263
0.5337996706188474
0.5354406778449936
0.5346715962695706
0.5313723786061813
0.5278180091195117
0.5242751800705876
0.5200874915168126
0.5131769662002033
0.5034517068594605
0.4920020211363883
0.4809875866529657
0.47001433128502407
0.45917006997202325
0.4465288160647828
0.43230766373598195
0.4163211345463906
0.40147126193049854
0.3876173791369783
0.37550936504655474
0.36222354532499607
0.3491620389869504
0.33507888227773114
0.323351716397706
0.31167124671270696
0.30217611936083705
0.29099471436830265
0.2798608141372805
0.2665454700091777
0.254463427542249
0.24150723219449322
0.22913215526444214
0.21332014708913744
0.19680607392400076
0.1770436543069425
0.15849617299700586
0.1386927433669385
0.12116321284515044
0.1028686459733734
0.08662259008320629
0.07043128703978335
0.05750099994902659
0.04523111456276112
0.03603210404154608
0.026772645066446565
0.020130094789894942
0.013587040132665791
0.009897248026741374
0.0067306260391222445
0.005562609921973748
0.004072076356336712
0.0034150839733614255
0.0025331323492766753
0.00248335857799421
0.00220361437382503
0.002461060816633346
0.0023604868047776835
0.002639646110617308
0.002602144572682972
0.003215333196634686
0.003780233004447788
0.005306361913795998
0.006360864863675885
0.008704395528518595
0.010427415337950946
0.014740649476975787
0.018927166205472263
0.026341296289165084
0.032894846263860134
0.042332884914022734
0.05103705524648195
0.06334831257824916
0.07575016605044729
0.09235454042118636
0.10855812284733894
0.1285623347323579
0.14879199571414942
0.17411228544996138
0.20045239962229414
0.23132755329834753
0.2609906147929911
0.2934304140160962
0.3231732458963091
0.3568719507316749
0.3882754600544869
0.4236246814367534
0.45440022291708715
0.4875109471460272
0.5146844640076015
0.5444538757582742
0.5707572698271172
0.5995151866045549
0.6231659930110159
0.6455352877948481
0.6629623529491266
0.6824772105730722
0.7001446594461994
0.7203834617841789
0.7362306824158943
0.7520442826386786
0.7597862465273963
0.7619100407581771
0.7561510081169497
0.7484481793349603
0.7404262222629974
0.7305784745913333
0.7199108090370042
0.7094013535405348
0.6999877319537173
0.6910447908441356
0.6815986165778034
0.6713849221592569
0.6607093043362907
0.6508243062960745
0.6419199862943662
0.6339478108897618
0.6258213649193672
0.6169812921524326
0.6082340009765331
0.6002033338209025
0.5933148710992299
0.5872963930065105
0.5817033934323977
