0.07633022553019661
0.06767507808195865
0.05928337423251575
0.052177228260886735
0.04391651624103811
0.037309107435381336
0.029599952250635123
0.023185687717518423
0.015611845408339266
0.009911331704774986
0.004794863694679076
0.00201540043343642
4.5151814612445367E-4
6.1885969391315E-5
-0.0
-0.0
-0.0
-0.0
-0.0
-0.0
-0.0
-0.0
-0.0
-0.0
-0.0
-0.0
-0.0
-0.0
-0.0
-0.0
-0.0
-0.0
-0.0
-0.0
-0.0
-0.0
-0.0
-0.0
-0.0
-0.0
-0.0
-0.0
-0.0
-0.0
-0.0
-0.0
-0.0
-0.0
-0.0
-0.0
-0.0
-0.0
-0.0
-0.0
-0.0
-0.0
-0.0
-0.0
-0.0
-0.0
-0.0
-0.0
-0.0
-0.0
-0.0
-0.0
-0.0
-0.0
-0.0
-0.0
-0.0
-0.0
-0.0
-0.0
-0.0
-0.0
-0.0
-0.0
-0.0
-0.0
-0.0
-0.0
-0.0
-0.0
-0.0
-0.0
-0.0
-0.0
-0.0
-0.0
-0.0
-0.0
-0.0
-0.0
-0.0
-0.0
-0.0
-0.0
-0.0
-0.0
-0.0
-0.0
-0.0
-0.0
-0.0
-0.0
-0.0
-0.0
-0.0
-0.0
-0.0
-0.0
-0.0
-0.0
-0.0
-0.0
-0.0
-0.0
-0.0
-0.0
-0.0
-0.0
-0.0
-0.0
-0.0
-0.0
-0.0
-0.0
-0.0
-0.0
-0.0
-0.0
-3.948988142101275E-7
-3.948527196884352E-7
-3.949148352427905E-7
-0.0
-0.0
-0.0
-0.0
-0.0
-0.0
-0.0
-0.0
-0.0
-0.0
-0.0
-0.0
-0.0
-0.0
-0.0
-0.0
-0.0
-0.0
-0.0
-0.0
-0.0
-0.0
-1.3556513576583074E-4
-1.3560938219263726E-4
-1.3560459099248794E-4
-0.0
-0.0
-0.0
-0.0
-0.0
-0.0
-0.0
-0.0
-0.0
-0.0
-0.0
-0.0
-0.0
-0.0
-0.0
-0.0
-0.0
-0.0
-0.0
-0.0
-0.0
-0.0
-0.0
-0.0
-0.0
-0.0
-0.0
-0.0
-0.0
-0.0
-0.0
-0.0
-0.0
-0.0
-0.0
-0.0
-0.0
-0.0
-0.0
-0.0
-0.0
-0.0
-0.0
-0.0
-0.0
-0.0
-0.0
-0.0
-0.0
-0.0
-0.0
-0.0
-0.0
-0.0
-0.0
-0.0
-0.0
-0.0
-0.0
-0.0
-0.0
-0.0
-0.0
-0.0
-0.0
-0.0
-0.0
-0.0
-0.0
-0.0
-0.0
-0.0
-0.0
-0.0
-0.0
-0.0
-0.0
-0.0
-0.0
-0.0
-0.0
-0.0
-0.0
-0.0
-0.0
-0.0
-0.0
-0.0
-0.0
-0.0
-0.0
-0.0
-0.0
-0.0
-0.0
-0.0
-0.0
-0.0
-0.0
-0.0
-0.0
-0.0
-0.0
-0.0
-0.0
-0.0
-0.0
-0.0
-0.0
-0.0
-0.0
-0.0
-0.0
-0.0
-0.0
-0.0
-0.0
-0.0
-0.0
-0.0
-0.0
-0.0
-0.0
-0.0
-0.0
-0.0
-0.0
-0.0
-0.0
-0.0
-0.0
-0.0
-0.0
-0.0
-0.0
8.547937677307593E-5
0.0014547904964851608
0.01024080051675041
0.025944071549655282
0.043646108501208765
0.05176714432397297
0.0508373981847215
0.04893309033476816
0.045453002546436236
0.044901250116241326
0.044243191977484664
0.047116326721152894
0.05095076057751017
0.04830046308560365
0.04751098068210655
0.047517907033042275
0.04775857536209431
0.04795696174904983
0.04501620502316815
0.044612136088530416
0.040851399966967794
0.034879007084323746
0.02805067237360892
0.02242717897925439
0.017104502438265497
0.01273722062152138
0.008501545011593838
0.006408444819460599
0.005844816286715939
0.006640657564383441
0.008449448370984056
0.012929713836552816
0.02030704243068312
0.03230881126746938
0.048515963709183416
0.06928769806000257
0.09245447181386032
0.11864195553485032
0.14558490508101524
0.17431312484214523
0.20407945405584813
0.2351711948338809
0.26731966025257375
0.3011677967705321
0.33419126322423476
0.36578860013545705
0.3933531274739714
0.41598498640772474
0.430479624732452
0.43864518567041016
0.4443842148254004
0.45285346786533875
0.4640674217866469
0.4782983811291804
0.49160213420694027
0.5019384562516578
0.5073192532604471
0.5101945208633081
0.5100195496985264
0.5090339212273702
0.5052734036675938
0.5004816329410328
0.4944999153927458
0.4913040245313519
0.4904623527411688
0.492528207534698
0.4945133857914331
0.49657690619831046
0.49801461741249464
0.500820731099923
0.5042480362326243
0.5083716424988055
0.510357865569918
0.5109796147679854
0.5101046324935343
0.5101786139450284
0.5120594533044612
0.513942892349543
0.5146295761174848
0.51330299249485
0.5113432050572811
0.5107346933328697
0.5112434998405117
0.5135077447099513
0.5147092662617182
0.5151554312412451
0.5143763881576605
0.5153224880974967
0.517395146204387
0.5211909577836406
0.5235226547914933
0.5256617680260852
0.5257059923761481
0.5275278398190646
0.5301711568660119
0.5343697690940481
0.5360271908141003
0.5352656680632618
0.5319537775141451
0.5283758955510889
0.5248147788692892
0.5206040564243894
0.5136599676126662
0.5039066261829525
0.4924074755627729
0.481338679456477
0.47030553992623636
0.4594444687711811
0.44678706203228175
0.4325438784095982
0.4165364544361291
0.40165661972827643
0.38780295354153205
0.3756752038289696
0.3623758050501175
0.34929389702712366
0.3352208726731578
0.32351030914133033
0.3118541579251847
0.3023500469415909
0.29117656279219384
0.28003846527744936
0.2667183601097168
0.2546411992588417
0.2416749509159613
0.22933243159712843
0.2135195718883777
0.19703174967939482
0.17728181519813235
0.15875392529988075
0.13895719111832117
0.12144515400055471
0.10318000799469122
0.08695284036746607
0.07077375119754153
0.0578533243954062
0.04559986706908499
0.036413427342843925
0.027183459616603914
0.020552883167741908
0.014013117240844825
0.010304715392818999
0.007166259662013281
0.0060294557807767084
0.004562034118871282
0.003901936224868072
0.003003710536871413
0.0029486413367543966
0.002660089225160416
0.0029324785308674417
0.0028277163845821874
0.003119026423890039
0.003075696840519335
0.003705383603614747
0.004272902471887797
0.00577831013588418
0.006805200895255455
0.009117560382687486
0.010852473580612662
0.015177254878625234
0.019377442881476383
0.02679068710106845
0.0333444177425434
0.04276741979462562
0.05145168427200868
0.06375147856301953
0.07615079579027176
0.09275846153442485
0.10896242052257514
0.12896351543764456
0.14919214568931669
0.17451026995991717
0.20086168492057327
0.2317600979294817
0.2614401502433028
0.29389106501739237
0.3236405869345415
0.3573544796024688
0.38880050677054123
0.42416230586799686
0.45497284748357564
0.48810461732980526
0.5153464912915072
0.5451724970619443
0.5715114935697687
0.6002776102326378
0.6239154162495546
0.6462626789341409
0.6636787954982643
0.6831982566432298
0.7009062638979469
0.7211753238940594
0.73706962033192
0.7528990836088711
0.7606629767773725
0.762775311803913
0.7570456715040729
0.7493810103579241
0.7413840749203997
0.7315383523230311
0.7208961135066123
0.7103925734519029
0.701027477502376
0.6921072221602839
0.6826893646035906
0.6724827016478042
0.6618308562431995
0.6519511245816966
0.6430931760073403
0.6351216795253682
0.6270691052596022
0.6182081071366594
0.6094783997104005
0.6013861584304878
0.5945006688535077
0.5884939817612951
0.582997838685174
