0.723003493000000
0.672701077000000
0.675391290000000
0.700407358000000
0.703199594000000
0.711889087000000
0.717021244000000
0.712879570000000
0.722421250000000
0.721900486000000
0.731211372000000
0.727315276000000
0.730650151000000
0.736979470000000
0.741949205000000
0.740072048000000
0.738824472000000
0.738329343000000
0.745244223000000
0.748252947000000
0.747907736000000
0.741432784000000
0.743078354000000
0.741653427000000
0.740542892000000
0.739642043000000
0.738732211000000
0.739630638000000
0.743303393000000
0.742820650000000
0.748407744000000
0.749614018000000
0.752356223000000
0.752780542000000
0.754564962000000
0.754774364000000
0.757494087000000
0.757541230000000
0.762223078000000
0.764236203000000
0.765869214000000
0.769777645000000
0.775564853000000
0.780084051000000
0.787048053000000
0.791538435000000
0.794514324000000
0.801072460000000
0.801188627000000
0.804178876000000
0.805760393000000
0.806233537000000
0.806525194000000
0.808623921000000
0.805370336000000
0.807736826000000
0.805823421000000
0.804507165000000
0.801655454000000
0.801339110000000
0.796182950000000
0.798835826000000
0.799284559000000
0.801276033000000
0.803618618000000
0.805523936000000
0.807395008000000
0.812671770000000
0.816793285000000
0.820808628000000
0.822875870000000
0.823873907000000
0.826696206000000
0.832692191000000
0.839122835000000
0.845286420000000
0.851721681000000
0.859415920000000
0.871197569000000
0.882078282000000
0.890444479000000
0.895145090000000
0.904172678000000
0.908088598000000
0.918570482000000
0.925673378000000
0.931971281000000
0.936134129000000
0.947252675000000
0.947856382000000
0.944707707000000
0.944903791000000
0.942975052000000
0.941937058000000
0.940737117000000
0.938747765000000
0.935027066000000
0.936547324000000
0.941001564000000
0.940266864000000
0.938180756000000
0.936759539000000
0.941112579000000
0.939892920000000
0.947907785000000
0.939124687000000
0.943094274000000
0.943752692000000
0.943710806000000
0.935620927000000
0.941147687000000
0.937122664000000
0.934872751000000
0.927880369000000
0.927988001000000
0.922754337000000
0.924418190000000
0.921823637000000
0.918555323000000
0.923176348000000
0.927953493000000
0.928580641000000
0.937012101000000
0.933176905000000
0.932465373000000
0.936226568000000
0.937081735000000
0.930324061000000
0.931316890000000
0.933512491000000
0.937752457000000
0.941984456000000
0.939238649000000
0.937016369000000
0.946625652000000
0.948507446000000
0.942332496000000
0.945591050000000
0.946397643000000
0.951668325000000
0.958124993000000
0.955962753000000
0.954481239000000
0.954444359000000
0.952304775000000
0.946619308000000
0.947729316000000
0.942720595000000
0.944555861000000
0.946931361000000
0.948576266000000
0.949086256000000
0.950442956000000
0.951612404000000
0.952670470000000
0.957290570000000
0.966031566000000
0.984854847000000
1.00272173600000
1.02595472200000
1.04315287100000
1.07158048300000
1.08804475500000
1.10039928000000
1.10216848800000
1.10156124500000
1.09115527000000
1.08800753200000
1.07873671200000
1.06727540500000
1.05904150100000
1.04876978000000
1.03834187100000
1.03276515300000
1.02258281900000
1.01423279000000
1.01553985700000
1.01347040900000
1.01452414200000
1.01971856100000
1.03147935100000
1.04398420000000
1.05266160200000
1.06147231600000
1.07074195100000
1.08418136600000
1.09526622600000
1.09992539000000
1.10609351500000
1.11593249700000
1.11628874300000
1.11896970900000
1.12120928400000
1.12144163300000
1.11663662900000
1.11102305100000
1.10653419300000
1.10400765000000
1.10236394600000
1.09699195400000
1.09234546600000
1.09111091100000
1.09062465100000
1.09310806100000
1.09541113800000
1.09643658400000
1.10059790600000
1.10348644700000
1.11107401100000
1.11809456600000
1.11996034700000
1.12154720500000
1.12544780800000
1.12620345000000
1.13422979900000
1.13788032300000
1.14288478300000
1.14389735300000
1.14337278100000
1.13959646600000
1.14028739400000
1.13609426200000
1.13410134500000
1.13286916800000
1.13823438900000
1.14602151100000
1.15518653700000
1.15969342900000
1.16857493800000
1.17189036800000
1.17558315600000
1.16989780200000
1.16523730200000
1.16164918200000
1.16067956300000
1.15572752300000
1.15198723600000
1.14721913500000
1.14803191400000
1.15291379800000
1.15369789100000
1.15404126100000
1.15896502400000
1.17136766700000
1.18240340900000
1.19885390500000
1.20615412700000
1.22400137800000
1.22125834700000
1.22826927100000
1.22460770500000
1.22957138100000
1.24605460100000
1.16991342400000
1.32089724000000