0.07669752605546797
0.06802672467434959
0.05962518413367234
0.05252088209844232
0.04425102563264582
0.037638745868027026
0.029922192889133486
0.023519062901649908
0.015958459776743556
0.010199238373548282
0.004981916639511857
0.002067742502542911
4.5235320815258307E-4
4.746028977750906E-5
-0.0
-0.0
-0.0
-0.0
-0.0
-0.0
-0.0
-0.0
-0.0
-0.0
-0.0
-0.0
-0.0
-0.0
-0.0
-0.0
-0.0
-0.0
-0.0
-0.0
-0.0
-0.0
-0.0
-0.0
-0.0
-0.0
-0.0
-0.0
-0.0
-0.0
-0.0
-0.0
-0.0
-0.0
-0.0
-0.0
-0.0
-0.0
-0.0
-0.0
-0.0
-0.0
-0.0
-0.0
-0.0
-0.0
-0.0
-0.0
-0.0
-0.0
-0.0
-0.0
-0.0
-0.0
-0.0
-0.0
-0.0
-0.0
-0.0
-0.0
-0.0
-0.0
-0.0
-0.0
-0.0
-0.0
-0.0
-0.0
-0.0
-0.0
-0.0
-0.0
-0.0
-0.0
-0.0
-0.0
-0.0
-0.0
-0.0
-0.0
-0.0
-0.0
-0.0
-0.0
-0.0
-0.0
-0.0
-0.0
-0.0
-0.0
-0.0
-0.0
-0.0
-0.0
-0.0
-0.0
-0.0
-0.0
-0.0
-0.0
-0.0
-0.0
-0.0
-0.0
-0.0
-0.0
-0.0
-0.0
-0.0
-0.0
-0.0
-0.0
-0.0
-0.0
-0.0
-0.0
-0.0
-0.0
5.619720086388036E-7
5.619064123959688E-7
5.61994807780434E-7
-0.0
-0.0
-0.0
-0.0
-0.0
-0.0
-0.0
-0.0
-0.0
-0.0
-0.0
-0.0
-0.0
-0.0
-0.0
-0.0
-0.0
-0.0
-0.0
-0.0
-0.0
-0.0
-1.3556513576583074E-4
-1.3560938219263726E-4
-1.3560459099248794E-4
-0.0
-0.0
-0.0
-0.0
-0.0
-0.0
-0.0
-0.0
-0.0
-0.0
-0.0
-0.0
-0.0
-0.0
-0.0
-0.0
-0.0
-0.0
-0.0
-0.0
-0.0
-0.0
-0.0
-0.0
-0.0
-0.0
-0.0
-0.0
-0.0
-0.0
-0.0
-0.0
-0.0
-0.0
-0.0
-0.0
-0.0
-0.0
-0.0
-0.0
-0.0
-0.0
-0.0
-0.0
-0.0
-0.0
-0.0
-0.0
-0.0
-0.0
-0.0
-0.0
-0.0
-0.0
-0.0
-0.0
-0.0
-0.0
-0.0
-0.0
-0.0
-0.0
-0.0
-0.0
-0.0
-0.0
-0.0
-0.0
-0.0
-0.0
-0.0
-0.0
-0.0
-0.0
-0.0
-0.0
-0.0
-0.0
-0.0
-0.0
-0.0
-0.0
-0.0
-0.0
-0.0
-0.0
-0.0
-0.0
-0.0
-0.0
-0.0
-0.0
-0.0
-0.0
-0.0
-0.0
-0.0
-0.0
-0.0
-0.0
-0.0
-0.0
-0.0
-0.0
-0.0
-0.0
-0.0
-0.0
-0.0
-0.0
-0.0
-0.0
-0.0
-0.0
-0.0
-0.0
-0.0
-0.0
-0.0
-0.0
-0.0
-0.0
-0.0
-0.0
-0.0
-0.0
-0.0
-0.0
-0.0
-0.0
-0.0
-0.0
-0.0
-0.0
-0.0
6.986461704340869E-5
0.0015424336976880171
0.01058388776405805
0.026577045177333364
0.04445431197761762
0.052584175316373424
0.05164635756286311
0.04975341965809621
0.046279944989186333
0.04575159617174197
0.04508833279879608
0.04798003887279036
0.05182824239556257
0.04920337144506982
0.048408600726659895
0.048420975368978714
0.04866242276595736
0.0488814618149865
0.045934005103920685
0.04554407484512214
0.04177886651451504
0.035811687258672786
0.028976371790457783
0.02336584932601913
0.018055355493515793
0.013603529978362266
0.009225049019094468
0.006996356290592586
0.00637059443155225
0.007290577892837334
0.009241848186232965
0.013896523772062139
0.02130496867584788
0.0333277319092073
0.04955297522355666
0.07036343335002314
0.09357018114463941
0.11980315979525276
0.14678434253738662
0.17552008200898986
0.2052882175711923
0.23636419515797114
0.2684968239226688
0.3022924732807726
0.33522654396322893
0.36673659808022185
0.3942111487290437
0.4167917633375934
0.4312272563124123
0.4393431489168563
0.44502043651374573
0.45345967550832234
0.46463506092376905
0.4788106913662337
0.49201235995990417
0.5022722696240524
0.5075900773614692
0.5104387758230471
0.5102570532062678
0.5093225729654592
0.505612181709115
0.5008522779380924
0.4948850176454943
0.4917075315442063
0.49086768758239047
0.4929259292269899
0.4949076512958561
0.49695414717097575
0.4983953189271976
0.501160009160368
0.5045802301604551
0.5086876167091875
0.5106699358081789
0.5112897173667706
0.5103860727590489
0.5104736946410714
0.5123350432931618
0.514218983809565
0.5148815362590529
0.5135775799507204
0.5116176888500827
0.5110370228296939
0.5115264308236229
0.5138275428156391
0.5149990908537367
0.5154757908760671
0.5146675685073908
0.5156464137284883
0.5177124368253238
0.5215224736413342
0.5238264153536704
0.5259258054691558
0.5259251253292742
0.5277426401974951
0.5303973268172312
0.5346058317938004
0.5362417375546088
0.5354776016688526
0.5321647864675397
0.5286281075084197
0.5251009629701532
0.5209680494971136
0.5140665587421758
0.5044040943984205
0.4929453466572391
0.4819619226018205
0.47098150330051086
0.4602043549107604
0.44760843791919785
0.4334656651576954
0.4175042340678488
0.40269630297922954
0.3888456021561851
0.3767794266137265
0.36350651168561554
0.3504683631094899
0.33639179374751776
0.32468349134636926
0.31304185424670866
0.3035621287279768
0.2923926717872728
0.2812551230429616
0.26792410350633344
0.2558610506409067
0.24291112353270553
0.23056994450677298
0.2147561913291176
0.1982276688932401
0.178456898286816
0.15989512521250776
0.14009500560948782
0.12256117541200691
0.10424997192961526
0.08797815558413616
0.07176495422928492
0.05881939563946251
0.04654967293832361
0.03734574908009619
0.028110037938887073
0.02144271098983196
0.014873977744251239
0.011103019196837568
0.007826940957298814
0.006548132173696667
0.004913479359012566
0.0041918373790988065
0.0032179675686816417
0.0031603206585016034
0.00285330421877617
0.0031492682232465803
0.0030406351510998968
0.0033479852866381003
0.0032967116891793884
0.003982252777232668
0.004608506188433586
0.006265719302193896
0.007401265810219666
0.009840311062993665
0.011609131950213356
0.01599518974598671
0.02021087432787253
0.0276431053282523
0.03418469857261936
0.043620771680016796
0.05231786164976805
0.06464582696963904
0.07705905633630031
0.0937015157585331
0.10994224709464046
0.12997294516474447
0.1502158358330498
0.17554175394673843
0.2019256346632001
0.2328482250037483
0.26252984105426946
0.29498199685603127
0.3247270896487009
0.3584528191839914
0.3898993852189029
0.42528454603725363
0.4560720194398397
0.48919351861758736
0.516377889893189
0.5462061123926338
0.5724858022386083
0.6012230813250973
0.6248241413016783
0.6471521663490595
0.6645436195458879
0.6840092827662184
0.7016900284370675
0.7219377833410967
0.7377946315266416
0.753619381720212
0.7613936751648958
0.7635610011282519
0.7578000749622211
0.7501215121371692
0.7420799137437959
0.7322583248405209
0.7215785503041966
0.7110927568743232
0.7016683513083118
0.6927405920038416
0.6833204367708388
0.6731373513644455
0.6624444297625601
0.6525674955309827
0.6436565097204665
0.6357090056133811
0.6275856893192329
0.6187545147063691
0.6100041191625127
0.60195696491793
0.5950541769232117
0.5890553138275383
0.583492092191785
