0.07623667296069021
0.06756903905285681
0.059175904490254554
0.05209026304984366
0.04382813907430002
0.037216953269083065
0.029486765178962083
0.02307034944302603
0.015498909864080175
0.00979255539909701
0.004643071822157192
0.0018818843502392143
3.627981579219631E-4
4.564004879303127E-5
-0.0
-0.0
-0.0
-0.0
-0.0
-0.0
-0.0
-0.0
-0.0
-0.0
-0.0
-0.0
-0.0
-0.0
-0.0
-0.0
-0.0
-0.0
-0.0
-0.0
-0.0
-0.0
-0.0
-0.0
-0.0
-0.0
-0.0
-0.0
-0.0
-0.0
-0.0
-0.0
-0.0
-0.0
-0.0
-0.0
-0.0
-0.0
-0.0
-0.0
-0.0
-0.0
-0.0
-0.0
-0.0
-0.0
-0.0
-0.0
-0.0
-0.0
-0.0
-0.0
-0.0
-0.0
-0.0
-0.0
-0.0
-0.0
-0.0
-0.0
-0.0
-0.0
-0.0
-0.0
-0.0
-0.0
-0.0
-0.0
-0.0
-0.0
-0.0
-0.0
-0.0
-0.0
-0.0
-0.0
-0.0
-0.0
-0.0
-0.0
-0.0
-0.0
-0.0
-0.0
-0.0
-0.0
-0.0
-0.0
-0.0
-0.0
-0.0
-0.0
-0.0
-0.0
-0.0
-0.0
-0.0
-0.0
-0.0
-0.0
-0.0
-0.0
-0.0
-0.0
-0.0
-0.0
-0.0
-0.0
-0.0
-0.0
-0.0
-0.0
-0.0
-0.0
-0.0
-0.0
-0.0
-0.0
-1.3669578396738675E-7
-1.36679828210147E-7
-1.3670132971646857E-7
-0.0
-0.0
-0.0
-0.0
-0.0
-0.0
-0.0
-0.0
-0.0
-0.0
-0.0
-0.0
-0.0
-0.0
-0.0
-0.0
-0.0
-0.0
-0.0
-0.0
-0.0
-0.0
-1.3556513576583074E-4
-1.3560938219263726E-4
-1.3560459099248794E-4
-0.0
-0.0
-0.0
-0.0
-0.0
-0.0
-0.0
-0.0
-0.0
-0.0
-0.0
-0.0
-0.0
-0.0
-0.0
-0.0
-0.0
-0.0
-0.0
-0.0
-0.0
-0.0
-0.0
-0.0
-0.0
-0.0
-0.0
-0.0
-0.0
-0.0
-0.0
-0.0
-0.0
-0.0
-0.0
-0.0
-0.0
-0.0
-0.0
-0.0
-0.0
-0.0
-0.0
-0.0
-0.0
-0.0
-0.0
-0.0
-0.0
-0.0
-0.0
-0.0
-0.0
-0.0
-0.0
-0.0
-0.0
-0.0
-0.0
-0.0
-0.0
-0.0
-0.0
-0.0
-0.0
-0.0
-0.0
-0.0
-0.0
-0.0
-0.0
-0.0
-0.0
-0.0
-0.0
-0.0
-0.0
-0.0
-0.0
-0.0
-0.0
-0.0
-0.0
-0.0
-0.0
-0.0
-0.0
-0.0
-0.0
-0.0
-0.0
-0.0
-0.0
-0.0
-0.0
-0.0
-0.0
-0.0
-0.0
-0.0
-0.0
-0.0
-0.0
-0.0
-0.0
-0.0
-0.0
-0.0
-0.0
-0.0
-0.0
-0.0
-0.0
-0.0
-0.0
-0.0
-0.0
-0.0
-0.0
-0.0
-0.0
-0.0
-0.0
-0.0
-0.0
-0.0
-0.0
-0.0
-0.0
-0.0
-0.0
-0.0
-0.0
-0.0
-0.0
5.292900940348353E-5
0.0013400579861446845
0.010174746816136258
0.025967354647579176
0.04382034188873488
0.05195707809694995
0.05103877098499174
0.049152850790918697
0.04568711299571562
0.04513753660155208
0.044476932297279274
0.04734564998711592
0.05119179143999166
0.04855651276687044
0.047769208929040706
0.047779143217916493
0.048015413976792896
0.04823517787370195
0.04529711345000316
0.04491151671462398
0.0411450949804108
0.03518112316413707
0.028328773389048347
0.02268767995476304
0.017361200780541923
0.012927045731674558
0.008588082492627401
0.006381326327712815
0.0057657827383714114
0.006656546626941788
0.008591387978595577
0.013214249858320122
0.020658011499586282
0.03270582247496642
0.04896612970377532
0.06976201957971154
0.09292730766882452
0.11912910856240015
0.14607808228354038
0.17481142388933749
0.2045544543028799
0.23560594302334442
0.26772016262700604
0.3015199967656231
0.33448379582198656
0.3660119581997357
0.3934890894387195
0.4160736700252654
0.4305063899484539
0.43864906454966096
0.4443439377827012
0.4527882178318625
0.4639510825727394
0.47813519062067533
0.4913885027671211
0.5016666051102492
0.5069885999612165
0.5098234081158762
0.5096608602689215
0.5087246296878181
0.5050036889690123
0.5002255652139003
0.4942646851858786
0.4910872107911766
0.4902424238365769
0.4922814328427294
0.49425116753409987
0.49632745199997347
0.49776307258095853
0.5005702707358535
0.5039820179435748
0.5081066953485343
0.5100648949335612
0.5106979938027154
0.5098111884714437
0.5098895830440766
0.511731325220968
0.5136226596118992
0.5143056363757594
0.5130165997806573
0.5110554916293145
0.5104596908183702
0.5109697200624245
0.5132212070396646
0.5144013656556672
0.5148357550296266
0.5140767190325959
0.5150313803004156
0.5170999235297612
0.5208817207296141
0.5231948885878605
0.5253168752463226
0.5253345653338257
0.5271676029084507
0.5298183588969678
0.5340356313723192
0.53567182980311
0.534917083526119
0.5316183912358196
0.5280609261472664
0.5244923418477131
0.5203055005067698
0.5133936089404241
0.503693592912494
0.4922363864237738
0.4812396858959326
0.47026960481314967
0.459467441623214
0.4468415766551847
0.43266620956578955
0.41669088625401096
0.4018836461892818
0.38804125206462214
0.37595540129031413
0.36266311673071183
0.3496078829996954
0.3355545684547363
0.3238664499743346
0.3122350522476403
0.30274606202796034
0.2915785917756254
0.2804421327786192
0.2671248948710916
0.2550501783650622
0.24209962444401462
0.22974978607380017
0.21394546191441266
0.19743693129570203
0.17767988651218847
0.15913440856844785
0.1393454551803114
0.1218253622970715
0.1035346287905703
0.08727712023661326
0.07109032653386636
0.058167193487105674
0.045918804483213296
0.03672212220240875
0.027448551602949074
0.020771082940478993
0.01417126801051038
0.01043079522387798
0.00717005842574358
0.005927097410620495
0.0043500209279274055
0.00366452336030814
0.0027460262249370316
0.0026935576910444396
0.00239891717015046
0.0026723727899861066
0.0025629711945822377
0.0028566396835156866
0.002809756034135365
0.003459133104687574
0.00405496803772585
0.00567582161318236
0.006785273658201325
0.009218407842740115
0.010981967801089615
0.015356419784133348
0.019574806287452274
0.027021560626422077
0.03359200032847267
0.043021649880484146
0.05170363491642769
0.06401941374013893
0.07643489176517722
0.09306338478436749
0.10927801974759581
0.12929298366317316
0.14951797162765182
0.17485163815343027
0.20120489228087465
0.23211431173105124
0.26177294994193845
0.2942082460348058
0.3239576321754424
0.3576824797607737
0.3891392935970729
0.4245028421814304
0.4553034799971486
0.4883860663257539
0.5156016003235482
0.5454211243881735
0.5717751507225967
0.6005149637369099
0.6241064513130254
0.6464623877471083
0.6638531610045846
0.6833742247827107
0.7010057849224199
0.7212876644338659
0.7371339156387101
0.7529870598032169
0.7607346787273499
0.7628588398600902
0.757131812044807
0.7494625793456704
0.741479787422569
0.7316255241081613
0.7209796832479202
0.7104435836991102
0.7010291059200259
0.6920618335815214
0.6826849412553437
0.6724946165991539
0.6618676182087375
0.6519221404305462
0.6430528799169498
0.6350548037687376
0.6269665334420323
0.618133850800955
0.6094005835002619
0.6013665506895155
0.594455209935806
0.5884498111138274
0.5829155177596691
