0.07595142138269284
0.06730802937520913
0.05891871432068753
0.05182446540206
0.043554094623936175
0.03694808656443419
0.029221922410394376
0.022818138722452475
0.015261108695197567
0.009582325277016211
0.00453142366938408
0.0018503547082992834
3.906692201662971E-4
5.4544133559495425E-5
-0.0
-0.0
-0.0
-0.0
-0.0
-0.0
-0.0
-0.0
-0.0
-0.0
-0.0
-0.0
-0.0
-0.0
-0.0
-0.0
-0.0
-0.0
-0.0
-0.0
-0.0
-0.0
-0.0
-0.0
-0.0
-0.0
-0.0
-0.0
-0.0
-0.0
-0.0
-0.0
-0.0
-0.0
-0.0
-0.0
-0.0
-0.0
-0.0
-0.0
-0.0
-0.0
-0.0
-0.0
-0.0
-0.0
-0.0
-0.0
-0.0
-0.0
-0.0
-0.0
-0.0
-0.0
-0.0
-0.0
-0.0
-0.0
-0.0
-0.0
-0.0
-0.0
-0.0
-0.0
-0.0
-0.0
-0.0
-0.0
-0.0
-0.0
-0.0
-0.0
-0.0
-0.0
-0.0
-0.0
-0.0
-0.0
-0.0
-0.0
-0.0
-0.0
-0.0
-0.0
-0.0
-0.0
-0.0
-0.0
-0.0
-0.0
-0.0
-0.0
-0.0
-0.0
-0.0
-0.0
-0.0
-0.0
-0.0
-0.0
-0.0
-0.0
-0.0
-0.0
-0.0
-0.0
-0.0
-0.0
-0.0
-0.0
-0.0
-0.0
-0.0
-0.0
-0.0
-0.0
-0.0
-0.0
-0.0
-0.0
-0.0
-0.0
-0.0
-0.0
-0.0
-0.0
-0.0
-0.0
-0.0
-0.0
-0.0
-0.0
-0.0
-0.0
-0.0
-0.0
-0.0
-0.0
-0.0
-0.0
-0.0
-0.0
-0.0
-1.3556513576583074E-4
-1.3560938219263726E-4
-1.3560459099248794E-4
-0.0
-0.0
-0.0
-0.0
-0.0
-0.0
-0.0
-0.0
-0.0
-0.0
-0.0
-0.0
-0.0
-0.0
-0.0
-0.0
-0.0
-0.0
-0.0
-0.0
-0.0
-0.0
-0.0
-0.0
-0.0
-0.0
-0.0
-0.0
-0.0
-0.0
-0.0
-0.0
-0.0
-0.0
-0.0
-0.0
-0.0
-0.0
-0.0
-0.0
-0.0
-0.0
-0.0
-0.0
-0.0
-0.0
-0.0
-0.0
-0.0
-0.0
-0.0
-0.0
-0.0
-0.0
-0.0
-0.0
-0.0
-0.0
-0.0
-0.0
-0.0
-0.0
-0.0
-0.0
-0.0
-0.0
-0.0
-0.0
-0.0
-0.0
-0.0
-0.0
-0.0
-0.0
-0.0
-0.0
-0.0
-0.0
-0.0
-0.0
-0.0
-0.0
-0.0
-0.0
-0.0
-0.0
-0.0
-0.0
-0.0
-0.0
-0.0
-0.0
-0.0
-0.0
-0.0
-0.0
-0.0
-0.0
-0.0
-0.0
-0.0
-0.0
-0.0
-0.0
-0.0
-0.0
-0.0
-0.0
-0.0
-0.0
-0.0
-0.0
-0.0
-0.0
-0.0
-0.0
-0.0
-0.0
-0.0
-0.0
-0.0
-0.0
-0.0
-0.0
-0.0
-0.0
-0.0
-0.0
-0.0
-0.0
-0.0
-0.0
-0.0
-0.0
-0.0
7.940352805174933E-5
0.0013615880223783626
0.010017660848467202
0.025587853941209864
0.04324775396357302
0.05137168136901274
0.05045621690161811
0.04855071697306912
0.04508258697472001
0.04452345220256028
0.04386133479769978
0.04672464946483794
0.05056940885642834
0.04792874827207929
0.04713597150612921
0.04712970795309913
0.047370045156359314
0.047574516823694984
0.04464098904613213
0.04424002071620912
0.04049283859051748
0.03452209698464622
0.02768604108524479
0.02203963682695474
0.016755685261557764
0.012420091790687076
0.008206709651426447
0.006096861527347193
0.005532738305666161
0.006357513242705993
0.008179361435833091
0.012633383392235829
0.019990334054057094
0.031979823610181354
0.04822732547199175
0.06900692158629941
0.09219787935610313
0.11838661427587623
0.1453657297416159
0.17409019612448887
0.20388090308263138
0.23495819782652166
0.2671369540956286
0.3009642938039293
0.33399694101811545
0.3655872176641798
0.3932012777987965
0.41585721882402094
0.43038182703656935
0.43852800145982324
0.4442649582886194
0.4527109561963578
0.46394865088064846
0.47816807963012503
0.49149987377237336
0.501819364796605
0.5072492534967723
0.5100920878216454
0.509944769622916
0.508938187943502
0.5052207988265844
0.5003969653484102
0.49442157019994076
0.49118600154478703
0.49035902255726505
0.4923969420117527
0.4944129662809722
0.49644508503858165
0.497928744987269
0.5007264486620048
0.5041822196017047
0.5082666136207952
0.5102724814478807
0.5109114829835664
0.5100610703134094
0.5101250515094848
0.511964633084796
0.5138112103245717
0.5144930490588852
0.5131760136373484
0.5112294672039587
0.5105990903088509
0.5111128230111305
0.5133816151234579
0.5145986452263476
0.5150388688308288
0.5142894494173644
0.5152302737254785
0.5173324958354252
0.521103655298552
0.5234659229444021
0.5255606301829054
0.525596518307952
0.5273871890593419
0.5300781167980642
0.5342854438032645
0.5359552291637242
0.535169742951241
0.5318724526625086
0.528285412051599
0.5247272060661039
0.5204826253008781
0.5135362312230197
0.5037522199463281
0.49229315694744913
0.4812348541518666
0.4702348838205324
0.4593513208403145
0.44668871507685354
0.4324440728291701
0.41642277696201
0.4015323113311556
0.38766708541626654
0.375518454416197
0.3622220761667303
0.3491227676948125
0.3350606438207802
0.3233250713330555
0.31168037020390615
0.3021563177287705
0.2909839394554867
0.2798105328746974
0.26650422231428367
0.2544068703865862
0.24146643838154658
0.22910010623485816
0.21329885470615478
0.19678313527482144
0.17703682749209798
0.15849194954108572
0.1386933496183811
0.12116955787204749
0.10289327883195269
0.08665322626583
0.07046312364017515
0.05753650749184448
0.04528814305957265
0.03609483419595075
0.026846372699961044
0.020212773920033924
0.013709058511986063
0.010037416570887197
0.006894194007179214
0.00573174874492281
0.004286760787914831
0.0036544590890669006
0.002797080033691177
0.002744602185156722
0.0024683348690930987
0.002731740171474983
0.002629249321111125
0.002905281296152844
0.002867346670547861
0.003462854314318803
0.00401768277728991
0.005503989448448128
0.0065460022991833
0.008856849047912391
0.01057937751086392
0.014860278868712308
0.019046650535011058
0.026439555254309844
0.03300445134349058
0.04241739306120748
0.05110286437245656
0.0633923208779769
0.07580554738915936
0.0924151243706629
0.10863012904146133
0.12862047520956232
0.14884643979160758
0.17416016854024446
0.20053625867681713
0.2314234704734919
0.2611063597437545
0.2935275519526548
0.323294474885606
0.3570011112217128
0.38846309739408935
0.4238420424715651
0.4546698229729275
0.48777965375685606
0.5150021429406374
0.5448266254722556
0.5711772451388945
0.5999361285955527
0.623583680591738
0.6459356047981506
0.6633675726032664
0.6828765641323218
0.7006038812569441
0.720865899402017
0.7367427469203102
0.752529778080757
0.7603315751667529
0.7624801806488908
0.7568003582263493
0.7490823135135093
0.741127884138285
0.7312569263308097
0.7206466433246315
0.7100501399534263
0.7007044116773531
0.691755278239968
0.6824210963164853
0.6721886332137508
0.661529991921015
0.651581365399846
0.6427269197853748
0.6347514106292422
0.6266938723916659
0.6178443849433017
0.6091739204539924
0.6010963616020186
0.5942323751087039
0.5881420559087884
0.5825069550697667
