0.07641316520965731
0.06776021152017755
0.05936722361774084
0.05226195315733711
0.043996922030169326
0.037387366267951
0.02966154957935428
0.02326239959140234
0.0157142264819348
0.010003694353948099
0.00485191435651367
0.0020130844235748888
4.4252994376549034E-4
5.1828899267170175E-5
-0.0
-0.0
-0.0
-0.0
-0.0
-0.0
-0.0
-0.0
-0.0
-0.0
-0.0
-0.0
-0.0
-0.0
-0.0
-0.0
-0.0
-0.0
-0.0
-0.0
-0.0
-0.0
-0.0
-0.0
-0.0
-0.0
-0.0
-0.0
-0.0
-0.0
-0.0
-0.0
-0.0
-0.0
-0.0
-0.0
-0.0
-0.0
-0.0
-0.0
-0.0
-0.0
-0.0
-0.0
-0.0
-0.0
-0.0
-0.0
-0.0
-0.0
-0.0
-0.0
-0.0
-0.0
-0.0
-0.0
-0.0
-0.0
-0.0
-0.0
-0.0
-0.0
-0.0
-0.0
-0.0
-0.0
-0.0
-0.0
-0.0
-0.0
-0.0
-0.0
-0.0
-0.0
-0.0
-0.0
-0.0
-0.0
-0.0
-0.0
-0.0
-0.0
-0.0
-0.0
-0.0
-0.0
-0.0
-0.0
-0.0
-0.0
-0.0
-0.0
-0.0
-0.0
-0.0
-0.0
-0.0
-0.0
-0.0
-0.0
-0.0
-0.0
-0.0
-0.0
-0.0
-0.0
-0.0
-0.0
-0.0
-0.0
-0.0
-0.0
-0.0
-0.0
-0.0
-0.0
-0.0
-0.0
-4.708408526513729E-7
-4.707858937599794E-7
-4.7085995460771704E-7
-0.0
-0.0
-0.0
-0.0
-0.0
-0.0
-0.0
-0.0
-0.0
-0.0
-0.0
-0.0
-0.0
-0.0
-0.0
-0.0
-0.0
-0.0
-0.0
-0.0
-0.0
-0.0
-1.3556513576583074E-4
-1.3560938219263726E-4
-1.3560459099248794E-4
-0.0
-0.0
-0.0
-0.0
-0.0
-0.0
-0.0
-0.0
-0.0
-0.0
-0.0
-0.0
-0.0
-0.0
-0.0
-0.0
-0.0
-0.0
-0.0
-0.0
-0.0
-0.0
-0.0
-0.0
-0.0
-0.0
-0.0
-0.0
-0.0
-0.0
-0.0
-0.0
-0.0
-0.0
-0.0
-0.0
-0.0
-0.0
-0.0
-0.0
-0.0
-0.0
-0.0
-0.0
-0.0
-0.0
-0.0
-0.0
-0.0
-0.0
-0.0
-0.0
-0.0
-0.0
-0.0
-0.0
-0.0
-0.0
-0.0
-0.0
-0.0
-0.0
-0.0
-0.0
-0.0
-0.0
-0.0
-0.0
-0.0
-0.0
-0.0
-0.0
-0.0
-0.0
-0.0
-0.0
-0.0
-0.0
-0.0
-0.0
-0.0
-0.0
-0.0
-0.0
-0.0
-0.0
-0.0
-0.0
-0.0
-0.0
-0.0
-0.0
-0.0
-0.0
-0.0
-0.0
-0.0
-0.0
-0.0
-0.0
-0.0
-0.0
-0.0
-0.0
-0.0
-0.0
-0.0
-0.0
-0.0
-0.0
-0.0
-0.0
-0.0
-0.0
-0.0
-0.0
-0.0
-0.0
-0.0
-0.0
-0.0
-0.0
-0.0
-0.0
-0.0
-0.0
-0.0
-0.0
-0.0
-0.0
-0.0
-0.0
-0.0
-0.0
-0.0
6.588506961054816E-5
0.00145643650146541
0.010298761273313955
0.02608369209174374
0.043830219558927186
0.051965892356262915
0.051050025620074505
0.04916271346334224
0.04569767531514647
0.045151219750899765
0.04449086179650256
0.04735562478392647
0.05118970697707928
0.048556291940073236
0.047773447627645196
0.04778697713606084
0.04803086712235448
0.04823443106508739
0.04530451399840335
0.044911550400451535
0.041161894049693164
0.03519545448649669
0.028369586895036807
0.022754506410367956
0.017501673081903448
0.013115482101336383
0.008832482083705599
0.006632287144437446
0.006032611363140706
0.006916206902230284
0.008839684673562014
0.013393358584981887
0.02075798080144972
0.03271700999308223
0.04894239559183277
0.06972465614411724
0.09290550555238004
0.11910824676797031
0.14607616859103922
0.17481758154779706
0.20459175171893168
0.23566145077553544
0.2677918032072087
0.3015890837248786
0.3345566315058235
0.366074187230592
0.39358579606272504
0.4161614212841341
0.43063209393582574
0.4387621511923146
0.44448409941198375
0.4529005798290515
0.4640718884894269
0.47823313411733803
0.4915036886763206
0.5017912005114952
0.5071614400217123
0.5099917927478208
0.5098044872439927
0.5088328664782189
0.5051315504754317
0.500357594049912
0.4944186775789898
0.49122295383745074
0.4903982090100803
0.49243287082456116
0.49439352068907694
0.4964515178975226
0.49788658000101
0.5007039759818008
0.5041052117717186
0.5082224552161987
0.5101930637082461
0.5108501094860617
0.509942795958464
0.5100293048274057
0.5118573432937529
0.5137569124160429
0.5144221950744229
0.5131125876374081
0.5111367044140628
0.5105246595898597
0.5110544723137599
0.5133311933547132
0.5145188884018081
0.5149421716330645
0.5141832201011348
0.5151670338483296
0.5172446105506027
0.521004975700295
0.5233129512001082
0.5254320127962665
0.5254785129312938
0.5272947774422755
0.5299324438383411
0.5341308206620557
0.5357703961260891
0.535035920877241
0.5317169283398757
0.5281735135263591
0.5246190104053547
0.5204633888107777
0.5135344475360493
0.5038243275146532
0.4923589501957403
0.4813551115335943
0.4703711370259802
0.4595619275185655
0.44695126398404506
0.4327793574792958
0.4168114169054816
0.4019659553448001
0.38813036921210425
0.37604921380301953
0.3627934287344905
0.34972804845866584
0.3356559414546248
0.3239414928801743
0.31230099939674805
0.3028082351590554
0.2916501118219648
0.2805179563952885
0.2672010202495125
0.2551206800394117
0.24217907975328445
0.22983102575498096
0.21402907432316873
0.19751521270170275
0.17775827758169457
0.15921442936070918
0.13941631058409515
0.12189361994643753
0.10359731043589147
0.08734134772232087
0.0711399084634655
0.05822151930337661
0.045962077716418394
0.03677262013562893
0.027530516872081953
0.020910581180667093
0.014401034387606117
0.010692047059303447
0.0074594025736368875
0.006215092876433807
0.0046555602730047165
0.00398454171150701
0.0030626413335232932
0.0030087412887395133
0.0027067916564974524
0.0029886541814764835
0.0028822319949665504
0.0031839784244423724
0.0031424255043303842
0.0037902311326678314
0.0043718993160142125
0.005961846412259279
0.007064430815402244
0.009485451833494302
0.011242365706433843
0.01554957524575377
0.01970958407546656
0.02707896685388675
0.03362897926402822
0.04304054541184257
0.05173909484213149
0.06405745221961724
0.07647373543074414
0.0930975731576246
0.10931669745061337
0.12933473946248325
0.1495775836712003
0.1749045767484764
0.2012716458197119
0.23217533100929905
0.2618655828463783
0.29432363661117394
0.3240733511982009
0.3577809627170428
0.38921680063566705
0.4245918689443033
0.4553944242744027
0.4884887199213497
0.515697976281483
0.5454915325420794
0.5717958043092662
0.600509161289902
0.6241118742357825
0.6464737429411904
0.6638880564949038
0.6833879044285127
0.7010354857444356
0.721283993758144
0.7371580805572813
0.7530033695436994
0.7607468357598638
0.7628652097610998
0.7571076535170786
0.7493973035328981
0.7414093441553652
0.7315605268387807
0.7209730303410801
0.7104142973341099
0.7010361624670657
0.6920649559853677
0.6826886840855435
0.6724690519111162
0.6617765942664973
0.6518596647819519
0.6429810779425181
0.6349951897633125
0.6268960526727188
0.6180343999808303
0.6093383405695436
0.6013011979457475
0.5944422963384169
0.5883779119600306
0.5826971417476478
