0.07682011912838874
0.06815545699061572
0.05975940784758
0.052653759877278765
0.04438536522395244
0.03777576247232892
0.030046625315902242
0.02363533710705707
0.016043248362122117
0.010302005291012589
0.005054550787269008
0.0021329236733043065
4.640290617738713E-4
5.762344215435574E-5
-0.0
-0.0
-0.0
-0.0
-0.0
-0.0
-0.0
-0.0
-0.0
-0.0
-0.0
-0.0
-0.0
-0.0
-0.0
-0.0
-0.0
-0.0
-0.0
-0.0
-0.0
-0.0
-0.0
-0.0
-0.0
-0.0
-0.0
-0.0
-0.0
-0.0
-0.0
-0.0
-0.0
-0.0
-0.0
-0.0
-0.0
-0.0
-0.0
-0.0
-0.0
-0.0
-0.0
-0.0
-0.0
-0.0
-0.0
-0.0
-0.0
-0.0
-0.0
-0.0
-0.0
-0.0
-0.0
-0.0
-0.0
-0.0
-0.0
-0.0
-0.0
-0.0
-0.0
-0.0
-0.0
-0.0
-0.0
-0.0
-0.0
-0.0
-0.0
-0.0
-0.0
-0.0
-0.0
-0.0
-0.0
-0.0
-0.0
-0.0
-0.0
-0.0
-0.0
-0.0
-0.0
-0.0
-0.0
-0.0
-0.0
-0.0
-0.0
-0.0
-0.0
-0.0
-0.0
-0.0
-0.0
-0.0
-0.0
-0.0
-0.0
-0.0
-0.0
-0.0
-0.0
-0.0
-0.0
-0.0
-0.0
-0.0
-0.0
-0.0
-0.0
-0.0
-0.0
-0.0
-0.0
-0.0
-5.164060694191296E-7
-5.163457918881167E-7
-5.164270199870247E-7
-0.0
-0.0
-0.0
-0.0
-0.0
-0.0
-0.0
-0.0
-0.0
-0.0
-0.0
-0.0
-0.0
-0.0
-0.0
-0.0
-0.0
-0.0
-0.0
-0.0
-0.0
-0.0
-1.3556513576583074E-4
-1.3560938219263726E-4
-1.3560459099248794E-4
-0.0
-0.0
-0.0
-0.0
-0.0
-0.0
-0.0
-0.0
-0.0
-0.0
-0.0
-0.0
-0.0
-0.0
-0.0
-0.0
-0.0
-0.0
-0.0
-0.0
-0.0
-0.0
-0.0
-0.0
-0.0
-0.0
-0.0
-0.0
-0.0
-0.0
-0.0
-0.0
-0.0
-0.0
-0.0
-0.0
-0.0
-0.0
-0.0
-0.0
-0.0
-0.0
-0.0
-0.0
-0.0
-0.0
-0.0
-0.0
-0.0
-0.0
-0.0
-0.0
-0.0
-0.0
-0.0
-0.0
-0.0
-0.0
-0.0
-0.0
-0.0
-0.0
-0.0
-0.0
-0.0
-0.0
-0.0
-0.0
-0.0
-0.0
-0.0
-0.0
-0.0
-0.0
-0.0
-0.0
-0.0
-0.0
-0.0
-0.0
-0.0
-0.0
-0.0
-0.0
-0.0
-0.0
-0.0
-0.0
-0.0
-0.0
-0.0
-0.0
-0.0
-0.0
-0.0
-0.0
-0.0
-0.0
-0.0
-0.0
-0.0
-0.0
-0.0
-0.0
-0.0
-0.0
-0.0
-0.0
-0.0
-0.0
-0.0
-0.0
-0.0
-0.0
-0.0
-0.0
-0.0
-0.0
-0.0
-0.0
-0.0
-0.0
-0.0
-0.0
-0.0
-0.0
-0.0
-0.0
-0.0
-0.0
-0.0
-0.0
-0.0
-0.0
-0.0
7.630487793361015E-5
0.0015531045125507165
0.010634501058127705
0.02665123135359118
0.04457558987027921
0.05271313585094785
0.05181294629401196
0.049924703478849204
0.04647525085077284
0.04593026898639679
0.04526636937098659
0.04813119306024307
0.051960118702318155
0.04933691916928767
0.048547958433168434
0.0485578844776026
0.048790190008909766
0.04900356015181366
0.04607840685692867
0.04569224704681629
0.04194261495629602
0.03598915929695336
0.029129349855487034
0.023483157537068394
0.01812023454189548
0.013658378386246653
0.00927189475758997
0.007041948160599637
0.0064031413607148376
0.007289202925614893
0.009227913277969456
0.013904570747388482
0.021397298862161487
0.03348529710562229
0.049737428831967787
0.07053265464593915
0.09370426360558912
0.11991192992913939
0.1468534384338424
0.17557186166675604
0.2053085668187417
0.2363315005813459
0.26841666884292137
0.30215564007108114
0.3350632084742236
0.36651760209288176
0.3939825109870864
0.41654050765602385
0.4309923794601288
0.4391077255028824
0.44479738636278066
0.4532152791459643
0.46436449123589757
0.4785338636268566
0.4917591751061988
0.5020441658176847
0.5073953718786496
0.5102551659212414
0.5100823926178032
0.509122414812482
0.5054051381971634
0.5006345187440299
0.49467719272897465
0.4914798238411742
0.4906499981708079
0.4927077466776294
0.49468918769079995
0.49674853381684536
0.4981774199925681
0.5009702099856191
0.5043734403963999
0.508471161820522
0.5104516303775428
0.5110894954767357
0.5102148357994574
0.5102944671506701
0.5121402643719322
0.5140205315357423
0.514698427063912
0.5133990932199908
0.5114316719908841
0.5108119183320327
0.5113109979171369
0.5135877217187597
0.5147897536937351
0.5152455100602861
0.5144594703883738
0.515427615462299
0.5174883634794375
0.5212949770675895
0.5236276206423925
0.525739331487174
0.525748403155182
0.527546115477604
0.5302034449349601
0.5344254057164146
0.5360771378524114
0.5353125180644779
0.5319902830034364
0.5284391528662846
0.5248918392329286
0.5207009335493602
0.5137766500697497
0.5040761679371337
0.4926643537984494
0.48166997261439715
0.4707193443872684
0.4599026237553949
0.44731737221550033
0.4331601624007032
0.4172315723972254
0.4024202205011108
0.38859567194753625
0.37654396034685167
0.3633051790329535
0.35027876753934123
0.33621996245835595
0.3245345090746312
0.3129126489256626
0.3034509273948056
0.29229366781237903
0.28117214780258754
0.26786730010182647
0.255809924564393
0.24287633628092145
0.23053727267111176
0.2147446631982297
0.19824893382155181
0.17850429495157513
0.15997976575198095
0.14020070048969235
0.12268636696246245
0.10437835104369514
0.08810939549533539
0.07190720814865226
0.05898244703973388
0.04671736029935193
0.037521123975101815
0.028247214760856964
0.021574859818083977
0.014927327333216592
0.011131442000151648
0.007823399355992484
0.006563706049267956
0.004944938891402772
0.004220948576761847
0.0032494434663439663
0.0031919835117395455
0.0028810684550067455
0.003176504610800353
0.0030608544813683866
0.003366492749021028
0.0033231430772677297
0.004001924192832394
0.004630766176309795
0.0062804515878475435
0.0074119693934017045
0.009888376696340297
0.011688737879342853
0.016118538668010867
0.02035933202046605
0.02782742868522594
0.03439834305568856
0.04382415089044021
0.05252172887422508
0.06483064901377367
0.07724388283934776
0.09386941837113946
0.110097450178323
0.1301233319649814
0.1503720420599545
0.17571387982987868
0.20209108670048906
0.23300029479098672
0.26268091653173076
0.2951237877720627
0.3248606168364978
0.3585770804278306
0.39002000753986815
0.4253960328574089
0.45619855743421545
0.4893199489158554
0.5165340818537623
0.5463300107217816
0.5726313718571393
0.6013344308507894
0.6249343900567012
0.6472362277118254
0.6646252930439656
0.6841066549993947
0.701778590914237
0.7220237028063169
0.7378713025368921
0.7537147264812154
0.7614797932343975
0.763624898586947
0.7578579438583843
0.7501922408147523
0.7421988026874076
0.732347586387819
0.7216700602484725
0.7111313690674597
0.7017469639163196
0.6928200097482317
0.6834107459909239
0.6732017698842385
0.6625261258740178
0.6526330475385981
0.643766372695565
0.6357832468172382
0.6276818078961942
0.6188514789149681
0.6101312128751314
0.6020814595771468
0.5951403099999769
0.5891142911983365
0.5835528076256282
