0.07520106282516538
0.06654824723924668
0.058164557613411515
0.051061969716287056
0.042809998909064687
0.03620589335507422
0.028490910730014116
0.022080481414063904
0.014560888252792906
0.008965236943080282
0.0041026691811898485
0.001606140554035525
3.095283176053222E-4
3.297392707653716E-5
-0.0
-0.0
-0.0
-0.0
-0.0
-0.0
-0.0
-0.0
-0.0
-0.0
-0.0
-0.0
-0.0
-0.0
-0.0
-0.0
-0.0
-0.0
-0.0
-0.0
-0.0
-0.0
-0.0
-0.0
-0.0
-0.0
-0.0
-0.0
-0.0
-0.0
-0.0
-0.0
-0.0
-0.0
-0.0
-0.0
-0.0
-0.0
-0.0
-0.0
-0.0
-0.0
-0.0
-0.0
-0.0
-0.0
-0.0
-0.0
-0.0
-0.0
-0.0
-0.0
-0.0
-0.0
-0.0
-0.0
-0.0
-0.0
-0.0
-0.0
-0.0
-0.0
-0.0
-0.0
-0.0
-0.0
-0.0
-0.0
-0.0
-0.0
-0.0
-0.0
-0.0
-0.0
-0.0
-0.0
-0.0
-0.0
-0.0
-0.0
-0.0
-0.0
-0.0
-0.0
-0.0
-0.0
-0.0
-0.0
-0.0
-0.0
-0.0
-0.0
-0.0
-0.0
-0.0
-0.0
-0.0
-0.0
-0.0
-0.0
-0.0
-0.0
-0.0
-0.0
-0.0
-0.0
-0.0
-0.0
-0.0
-0.0
-0.0
-0.0
-0.0
-0.0
-0.0
-0.0
-0.0
-0.0
7.897972141242869E-7
7.896980386499702E-7
7.898259965549579E-7
-0.0
-0.0
-0.0
-0.0
-0.0
-0.0
-0.0
-0.0
-0.0
-0.0
-0.0
-0.0
-0.0
-0.0
-0.0
-0.0
-0.0
-0.0
-0.0
-0.0
-0.0
-0.0
-0.0
-0.0
-0.0
-0.0
-0.0
-0.0
-0.0
-0.0
-0.0
-0.0
-0.0
-0.0
-0.0
-0.0
-0.0
-0.0
-0.0
-0.0
-0.0
-0.0
-0.0
-0.0
-0.0
-0.0
-0.0
-0.0
-0.0
-0.0
-0.0
-0.0
-0.0
-0.0
-0.0
-0.0
-0.0
-0.0
-0.0
-0.0
-0.0
-0.0
-0.0
-0.0
-0.0
-0.0
-0.0
-0.0
-0.0
-0.0
-0.0
-0.0
-0.0
-0.0
-0.0
-0.0
-0.0
-0.0
-0.0
-0.0
-0.0
-0.0
-0.0
-0.0
-0.0
-0.0
-0.0
-0.0
-0.0
-0.0
-0.0
-0.0
-0.0
-0.0
-0.0
-0.0
-0.0
-0.0
-0.0
-0.0
-0.0
-0.0
-0.0
-0.0
-0.0
-0.0
-0.0
-0.0
-0.0
-0.0
-0.0
-0.0
-0.0
-0.0
-0.0
-0.0
-0.0
-0.0
-0.0
-0.0
-0.0
-0.0
-0.0
-0.0
-0.0
-0.0
-0.0
-0.0
-0.0
-0.0
-0.0
-0.0
-0.0
-0.0
-0.0
-0.0
-0.0
-0.0
-0.0
-0.0
-0.0
-0.0
-0.0
-0.0
-0.0
-0.0
-0.0
-0.0
-0.0
-0.0
-0.0
-0.0
-0.0
-0.0
-0.0
-0.0
-0.0
-0.0
-0.0
-0.0
4.088382419854027E-5
0.0011559980888680556
0.00948361455010492
0.024743481057748876
0.0422104818872209
0.050331750790246356
0.04943368311795312
0.04755150130071654
0.04410067176563644
0.043557022464162536
0.042902288417835846
0.045762640296160784
0.04959205831682143
0.04696039622497571
0.046179819456136646
0.04618806545221852
0.046431969377002266
0.04664662130334034
0.043723304374182384
0.04332399472485165
0.03957135254970724
0.03361046332525892
0.026807035898832973
0.021194785838938728
0.015955518134096038
0.011693625781199575
0.007570885117498704
0.005533850180738631
0.0050052964628077455
0.005784568988617506
0.007545652562862155
0.011902062906086967
0.01919073852912219
0.03112874880449315
0.04733596070108483
0.06812581489322644
0.09129896717588289
0.11749813198163017
0.14447617719358352
0.17324983189757667
0.20306275001781915
0.23418213359427062
0.2663839516934826
0.30029961080034046
0.3334068162952474
0.3650988813181965
0.39273638981261505
0.4154499536508386
0.43000269169466926
0.43819406853005705
0.4439307761933931
0.45239255736820544
0.4636583078318308
0.4779158724971147
0.4912587693654745
0.5015893937096385
0.5070010723007791
0.5098664075060808
0.509711846420369
0.5087161050653984
0.5049322507116852
0.5000974594384974
0.4941186162665144
0.4909184240318455
0.49006983421391065
0.4921001186835358
0.49408511620009427
0.4961515801845515
0.4976101997304491
0.5004141592379179
0.5038609644958025
0.507972760997637
0.5099808619471828
0.5106090538764612
0.5097323321106524
0.5098127295836362
0.5116833970838633
0.5135684879192559
0.5142388806232049
0.5129247408538982
0.5109555372351824
0.5103410921985667
0.510842830479007
0.5131037041026635
0.5142850450596419
0.5147166896197208
0.5139755077193714
0.5149544378860602
0.5170231809383775
0.520798297580575
0.5231434695806547
0.5252843326526913
0.5253325300636298
0.5271338617700088
0.5297970109022455
0.5340001681604364
0.5356748280692937
0.5349078754981849
0.531611197558417
0.5280313425299621
0.5244881291898096
0.5202545771121899
0.5133051993983258
0.5035073027771043
0.492021849844052
0.48094161719407563
0.4699138749314624
0.4590055401740682
0.4463193065738669
0.43207871473226056
0.4160700901026958
0.4011540851986039
0.387226346987426
0.3750771901803625
0.36175604997112376
0.3486447112360397
0.3345058493432984
0.3227618821824504
0.3110911146847262
0.3015558107268078
0.2903500442111667
0.27917686088694993
0.2658343602304214
0.2537229216877379
0.24074708713981338
0.22836347337869975
0.21253000006103284
0.1959864086183645
0.17620729499816284
0.15762820510059491
0.13781051694061608
0.12026529871388958
0.10198240260723365
0.08573772613113607
0.06955404156737922
0.05662275193258507
0.04435975320144625
0.03516473363396272
0.025954347504637203
0.019351959743660403
0.01290872252585117
0.009292732143896027
0.006259711565338699
0.00516959054845089
0.0037905973767193846
0.0031765883883094767
0.0023722141148890936
0.0023202269424730426
0.002070896925639845
0.0023014129873883777
0.002215077864516135
0.0024659636661058444
0.002428172168091523
0.0029959555970499336
0.0035242121646383412
0.004939337070118574
0.005922673782297604
0.008152570015570305
0.009831440558382821
0.014039899792487745
0.018174933494228475
0.025531221122556822
0.032082290814077506
0.04150511380978653
0.0501999191237948
0.06250835125927502
0.07491153506981131
0.09151043820219426
0.10770922069051352
0.12770557823992568
0.14794148803563506
0.1732701898469127
0.19963442064468764
0.2305370393265379
0.26022268435006285
0.2926899190450426
0.3224483401272654
0.35616480426773345
0.3876145090774748
0.42299719709003875
0.4538286282165988
0.4869551078962886
0.5142006284024296
0.5440383381370121
0.5703944467661005
0.5991738777790598
0.6228461965193419
0.6452390313093433
0.6627144475774087
0.6822246268450338
0.6999235109816294
0.7201437342339081
0.7359976736931274
0.7518415320767945
0.7593636476612494
0.7612658700470509
0.755217614562656
0.7475399956279895
0.7395116273877372
0.7296791071731205
0.7190119311892816
0.7085130168534168
0.6991019337074996
0.6901255775299102
0.680678528201071
0.6704322050760358
0.6597699570674993
0.6498660135216711
0.6409715786518687
0.6330062085481825
0.6248581669659764
0.6160459563958195
0.6072658547936769
0.5992364403470483
0.5922856078709267
0.5862796173436867
0.5807701488410731
