0.4599944886802273
0.4592798541495404
0.45876053458091137
0.45794050043020706
0.4574831416491096
0.4575091408363716
0.4584321970821168
0.4587865950975541
0.4597146049087189
0.4599878827904108
0.46200793750763397
0.46362874963889383
0.467562136816287
0.4703912539162175
0.4750775519032885
0.4776073484889019
0.4819265681812512
0.48485978315338985
0.48934638733054225
0.49161359632060336
0.49405901128812224
0.49459465223103755
0.49608355838492757
0.4969120583108027
0.49871209435708164
0.49870909199495234
0.4985019670278876
0.4964097230692232
0.4954502387493999
0.49398230262237414
0.4942029254314086
0.49304304599254467
0.4926455376210896
0.49107794299898133
0.4914959783222517
0.49213026549211214
0.49462079566433165
0.4962368434790749
0.4983476673369841
0.49941484111433376
0.5023682689954256
0.5058806732262828
0.5113082140348485
0.5157789705021937
0.5208476442080199
0.5249936346233921
0.53057023676735
0.5359248466311273
0.5425560249320796
0.5482154665766134
0.554064803182224
0.5589741645043821
0.5654233463358432
0.572418058972551
0.5807622147673485
0.5878365524628889
0.5942249789344064
0.5988911452137183
0.6045302212210069
0.6104951616808713
0.6186492232953008
0.6267777606901914
0.6360180914781918
0.645278814808198
0.6567808727488611
0.66928072327893
0.6833267866206685
0.6955959615540829
0.7060023802641294
0.713453444476925
0.7205737017859184
0.7269817396991082
0.7336450197702669
0.7387773999599241
0.7435938653415239
0.7476545663823002
0.7530427831738986
0.7585903405216214
0.7640066839907039
0.7665466838940249
0.7666375562317739
0.7644688969798904
0.7628311958023591
0.7619296707094714
0.7621354849618712
0.7611125321168093
0.7586626837460549
0.7539827544628115
0.7484885364125988
0.741216819881211
0.7322092090095829
0.7197212034854754
0.7051945994289804
0.6893613689725002
0.6748940490647289
0.6620511495182018
0.6512361325840288
0.6403309691993755
0.629879050480679
0.6191307282304509
0.6101120852838575
0.6020806125726802
0.5954764969651709
0.5883356412092738
0.581260706378082
0.5737968836748066
0.5680603794951699
0.5636563352269568
0.5608886750877267
0.5576338784901943
0.5540754322294761
0.5498185177825924
0.5466422594379755
0.5441402455302775
0.542793419330746
0.5407855794033708
0.5386644603095613
0.5356748596397535
0.5336959376324976
0.5323138280617479
0.5317504889332297
0.5302943270428583
0.5283559183474777
0.5256576376270518
0.5240508334180198
0.5231780019242566
0.5233899720225532
0.5230237117496747
0.5221239342295702
0.5207024131627674
0.5199360208155521
0.5202360841028209
0.5212540484838013
0.5217140728362962
0.521347899829104
0.5204484789399564
0.5205491421904571
0.5215649652021735
0.5232958264080317
0.5242884219591573
0.5243881615747137
0.5237741719382631
0.5237964318951658
0.5246892787834069
0.52603654757998
0.5266099645111583
0.526125547231422
0.5255216088942808
0.5256291229860446
0.5271371180808687
0.5290709896864232
0.530765060938851
0.531395164999574
0.5318954575565868
0.5329283914514684
0.5355959826138426
0.5386766013744659
0.5417613473539791
0.5439062814970003
0.5465683542853431
0.5504375161690859
0.5567150744797857
0.5645609599505543
0.5734435292760424
0.5827381468624622
0.5934355675930155
0.6069127930160367
0.623152058104184
0.6422657930821667
0.6621886410583394
0.6827249867190022
0.7037466371928788
0.7268096202581124
0.7513572809131889
0.7756220216890745
0.7954942526541103
0.8074642074729309
0.8122398328314929
0.8142072532278335
0.8169448854067555
0.8216054380641837
0.8259429629964268
0.829224201301046
0.8316492397413101
0.8357216391277927
0.8413761823808781
0.8482361480366177
0.8536490809189444
0.8571901150858878
0.8584703681632756
0.858502521965969
0.8580126280430813
0.8565735631536343
0.8544398751489058
0.8512559573837732
0.8490801755137303
0.8494618538877822
0.8538843285829573
0.8609933412977796
0.8690542407939721
0.8763455724453121
0.8834401699725716
0.890584004007367
0.8977079190252821
0.9029223268333724
0.9050881829307769
0.9027751796020282
0.8973303333294514
0.8895787383298949
0.8811369285872206
0.8714161720850494
0.8601711207773309
0.8472456120531222
0.8341667154056543
0.8225487609943044
0.813450006901705
0.8056298256855369
0.7981755703375897
0.7902528060868383
0.7829836430303327
0.7770526471768177
0.7736476722646705
0.7719209722872822
0.7707494860604894
0.7694097165841324
0.7689342770145695
0.7699088619426976
0.7732464141820952
0.7773116899378234
0.7814176848346975
0.7842183078253175
0.7873104561358834
0.7919116410009159
0.7991224591606613
0.807311402702957
0.8159900042621003
0.8239354708342378
0.8326744739338188
0.84268150473443
0.8546813307397537
0.8677157722818911
0.88023759692461
0.8907641555638234
0.8999778537684106
0.9080152904247603
0.9157036446402419
0.9212273996183744
0.9243287587644272
0.9234201978873542
0.9212373700886236
0.9188739326105132
0.9189672090990125
0.9197365839788236
0.9205053889651259
0.9192321222074565
0.9170005466255841
0.9136029038512277
0.9098516622571035
0.9035439122915327
0.8941812468806745
0.880511064540674
0.8653740879780983
0.8497810841900689
0.8362445510573039
0.8231866918820977
0.8107681271059054
0.798218726856542
0.7871255226505989
0.7784762608403238
0.7732174985185014
0.77022531151632
0.7685688199374995
0.7673227006485226
0.7671148076115402
0.7691647450535204
0.7737253101471515
0.7805620543717584
0.7878482921863074
0.7950073635972899
0.8013856660913475
0.8075753815272525
0.8139334322632583
0.8197212250138063
0.8240126079784956
0.8261644481369675
0.827599379517463
0.8302119511989128
0.8351301318456669
0.8418330910495494
0.8483930341829123
0.8537047179940992
0.8590094732024239
0.8657127657131033
0.8743790194999019
0.8838737963906581
0.8923697657527322
0.8991985853692844
0.9041928850973643
0.9097935156788118
0.9163442955244483
0.9247313100075099
0.9319559068959197
0.9376611601549315
0.9422512715343515
0.9479683229934608
0.9549546153160549
0.9627936012190746
0.9695661867328481
0.9755255729324264
0.9804989290303208
0.9858360070324084
0.9917820530828372
0.9974396082081673
1.0008949125037427
1.0015823659112706
0.9999208176022037
0.997957565307252
0.9962166275184001
0.9945214291024156
0.9912053239292017
0.9865232416914999
0.9814957334994183
0.9790219019541196
0.9797235159360003
0.9835650914752914
0.9886509088367056
0.9951545563080241
1.0036996331321753
1.0164914853146891
1.0337752274394796
1.0556225327236737
1.0802275553154355
1.1058163209013017
1.1319493530094684
1.1592637007198903
1.188131227267361
1.2183313523594514
1.249248507324285
1.2796022252346098
1.3098479283184523
1.3386071033407696
1.364624942073758
1.38527275869284
1.3989850496360687
1.4060848488216422
1.4106953726660925
1.417301246584946
1.4273602307838507
1.4404082455840863
1.4524098157271146
1.4610137091019018
1.464536574438907
1.4659739343144618
1.4652831646813456
1.464313499756028
1.460632184794612
1.4559029190045307
1.4502401447993327
1.4467450292842077
1.4456998257192515
1.4470563192844543
1.4488734007609247
1.4497509350304103
1.450226569330714
1.451508692890079
1.4546524461245014
1.45828439830544
1.4602788705416387
1.4598098218654394
1.4580201387413556
1.4568650345149368
1.458082303946828
1.459641260492381
1.4603591396860816
1.4581665158485053
1.4550067542609928
1.4529803435457518
1.4531791376154781
1.4549147121847883
1.4558873975541837
1.4549413378205316
1.4530756146106625
1.4525790747949583
1.4544176850238382
1.4577535408054094
1.4597298456360916
1.4602478734387407
1.4593130254431121
1.4599968919609974
1.4629206798962662
1.4664847789129705
1.4682517350035564
1.4665778876840976
1.4629604311570839
1.4591217534286045
1.4560106580642618
1.452475320600961
1.4462351390941832
1.4366196668999118
1.4252047136352919
1.4143224363040683
1.4044740870038637
1.3947103476694442
1.382849768232127
1.3689104896285451
1.353630168797183
1.3391590942120268
1.326580952862406
1.3155454848014125
1.3035822492820557
1.2902734738549104
1.276103839760334
1.2639225072861098
1.2536978789010749
1.2445897347240593
1.234395102361286
1.2225462643467833
1.2092822456269523
1.1966071824152924
1.1849429958191633
1.1731213728735475
1.158790848232418
1.1416916151380294
1.1219395202426679
1.1020523833903098
1.0833343574124112
1.0659034519726232
1.0479066262979038
1.029361176481605
1.0114500141229312
0.9958794717482106
0.9836658613968232
0.9737417557549802
0.9642819907701958
0.9545454586636304
0.9449364075771253
0.9373667147425097
0.9323699465202498
0.9290584431310656
0.9256276107183627
0.9213593262326715
0.9170451661242202
0.9138154093209712
0.9122582547296614
0.9115742495030827
0.9105111603805346
0.9084760336481751
0.9061532510324427
0.9049045199038523
0.9055225207239498
0.9069070440887605
0.9083652887460892
0.9085054710051956
0.908554569920628
0.9096203397745
0.9126158395864771
0.9168505826683737
0.9208616773890484
0.9236893364556803
0.9261011647993553
0.9290811933655836
0.9334430987321986
0.9381595414577613
0.9418965766161592
0.9432136018416538
0.9427792709861038
0.9418013463381245
0.9405260565710475
0.938264436700337
0.9334881422763146
0.9253599407483486
0.915357650986232
0.9048101280495313
0.8941707876592084
0.8835768867885051
0.8728209455635414
0.8623670430117906
0.8522103781245879
0.8428059769842667
0.8336880992453379
0.8251615392013187
0.8158444609187465
0.8054833863227251
0.7943407403258158
0.7840485020715847
0.7744909324035241
0.7655209951021404
0.7555616749559593
0.7451894555142348
0.7344047419941003
0.7243012147248696
0.7149080233537
0.7061511580628365
0.6967336590274217
0.6870827436692436
0.6768526123295157
0.6676133823436055
0.6585461263711254
0.6499905755344717
0.640712005746084
0.631769521481958
0.6223766405595572
0.6139615401874955
0.6053401995596982
0.5981103764431867
0.5904774319031382
0.5832251748745498
0.5758073763003181
0.5688402165314371
0.5628353968109332
0.5573145173298582
0.5523093899951542
