0.46500082414179544
0.4642524478220559
0.46365296274022205
0.4628720038585052
0.4623852982529884
0.46245084303200384
0.4633639771046569
0.46371901893318357
0.4646535491936134
0.4648749569337539
0.4669350871350236
0.468546747812023
0.47249350489361563
0.47528300434833676
0.47993858262541744
0.4824117510469592
0.4866921547578191
0.4896772484520077
0.4941985089868508
0.49650802062601895
0.4989020170053417
0.49942026074374973
0.5008625221016964
0.5017004215081332
0.5035038194274848
0.5035276048197821
0.5032824047565313
0.5012030897819612
0.5002059895106299
0.498730915467824
0.49888939605959537
0.497721989189416
0.49732102958286445
0.4957443007808398
0.49614266849077465
0.49674061955814797
0.49925721030273423
0.5008793465412199
0.5030003892887275
0.504046661491456
0.5069865062513874
0.5105223739939924
0.515944583142481
0.520445796679663
0.5255252871762783
0.5297166058217175
0.5353047103628829
0.5406579380291131
0.5472813179144884
0.5529599983013798
0.5588339128127491
0.5637925203317963
0.570273477401595
0.5773204845073494
0.5856915185173595
0.5928246523530508
0.5992488614221414
0.6039729177018784
0.6095849518459597
0.6156025692627458
0.6237528463537015
0.6320155815916597
0.6412536515558773
0.6506122906360635
0.6621213698944146
0.6747543750823627
0.6888568802292493
0.7012127804678087
0.7116665460193897
0.7192062061193794
0.7263662619713352
0.7328663392890302
0.7395404724599536
0.7447605868539384
0.7495848487017466
0.7537171084796196
0.7591508277336545
0.7647325866866928
0.7701574755653258
0.7726401426416042
0.7727411399352045
0.7705884137798369
0.7689909963087214
0.7680891475730166
0.7682877777312961
0.7672462795774508
0.7647970854850991
0.7600890409873527
0.7545299215915067
0.7472261061071682
0.7381465298150479
0.7256017162997576
0.7108954813783541
0.6949352975239033
0.6803701997399473
0.6674694887026621
0.656592685243271
0.6456388273384366
0.6351191146041748
0.6243263708814566
0.6152400100606926
0.6071621001445636
0.6005354870226107
0.5933491455583441
0.5862393612049268
0.5786976280913115
0.5728980235277182
0.5684697629463276
0.5656869139602629
0.5624283351525246
0.5588286543400659
0.5545430271253226
0.551337919205262
0.5488451822131183
0.5474960987345306
0.5454908675196692
0.5433565215100598
0.5403598983205038
0.5383796430423219
0.536987467853428
0.5364220570208795
0.534941067496941
0.532984313737349
0.530265360582946
0.528629008260889
0.5277471083680568
0.5279576254844099
0.5276290906330712
0.5267289428058715
0.5252632563543504
0.5245017501217455
0.5247923063066243
0.525834171149687
0.5262808590830306
0.5259129463694411
0.5250269682613351
0.5251204166216071
0.5261360473843177
0.5278740746615541
0.528863107289267
0.5289766708437671
0.5283113669447761
0.5283424627406436
0.5292151589729892
0.5306099254430952
0.5311671722865695
0.5306738116182262
0.5300510639769218
0.5301840782634604
0.531673886717716
0.5335928766731303
0.5352265024364451
0.5358363830159263
0.5362957303255608
0.5373320377984034
0.5399852619635193
0.543071923634066
0.5461039971828463
0.5482747505822256
0.5509052556498538
0.5548154134912485
0.5610678538858912
0.5689497695526871
0.5778469177279565
0.587184314066851
0.5979303551964303
0.6114771455343019
0.6278410232239143
0.6470897680236043
0.6671324801607049
0.6878089221307901
0.7089969734083442
0.732280698954041
0.7570233742317831
0.7814770989150297
0.8015246809131221
0.8135948280292389
0.818404786153003
0.8203480059432539
0.823112696788208
0.827816775242236
0.8321646480827604
0.8354194887377274
0.8378454282811585
0.8419609960175154
0.8477032786071258
0.8545831996678572
0.8600484888340502
0.8636114250875805
0.8649467794555239
0.8649950988909528
0.8645434453535561
0.8631098635859169
0.860931440117542
0.8576192055041165
0.8554216455452014
0.8558075892144781
0.8603182230542656
0.8674351608561138
0.8755704502799266
0.8828593412294223
0.8900526203790013
0.8972274747288133
0.904399593455495
0.9095644777236562
0.9117260618580625
0.9094010611878514
0.9039537330883647
0.8961398525447126
0.8876899419031231
0.877909980100002
0.8666474513138717
0.853641914829683
0.8405233217193451
0.8288280898552022
0.8196670138447743
0.811794067973157
0.8043081666110227
0.7963514868387678
0.7890292321320503
0.7830393726566589
0.7796283304556056
0.7778665491382553
0.7766851667396245
0.7753276560541745
0.7748460021015435
0.7758544989569636
0.7791822226380013
0.7832841090977062
0.7873904143148774
0.7902015397529993
0.7932927122250434
0.7979176581090598
0.805154596315727
0.8134524790297891
0.8222067231117643
0.830270478360628
0.8390382909815184
0.8490616454845381
0.8611009625768251
0.8741872727152991
0.8868184701031564
0.8973755867933481
0.9066490009171381
0.9147101981820781
0.922475918652294
0.9279954904066655
0.9310583256056505
0.9301154124868953
0.9279201256160653
0.9256082513649567
0.9256899525587872
0.9264973620736213
0.9271904450619687
0.9258704258067415
0.9236477234819503
0.920316956791622
0.9166063896897881
0.9102285650193062
0.9008241220056911
0.8870697448339608
0.8718601530319776
0.8561351910755809
0.842479412946559
0.8293076844341475
0.8168166876859849
0.8041972467509868
0.7930091187246583
0.7842745980839116
0.7789516606976777
0.7758871010337215
0.7742027574164976
0.7729619928806529
0.7727759942561325
0.7747813561865516
0.7793448269449739
0.7862486488165517
0.7935850599051725
0.8007953508487904
0.8072258266075703
0.8134836248551736
0.8198752513225547
0.8256707503712037
0.8299953206683781
0.8321396435446315
0.8335671528002393
0.8361744710568666
0.8411154429207559
0.847859326290635
0.854467739556419
0.8597876978037279
0.8650750998795078
0.8718165465518849
0.8805628030913589
0.8901419504324449
0.8986631444533969
0.90549621403954
0.9105149209551663
0.9161800185211746
0.9227591784848405
0.9311030524682852
0.9382845105693148
0.9439803624840222
0.9486027615015011
0.9543213799464645
0.9613795175410212
0.9692737379059972
0.9760660291047341
0.9820193902666685
0.9869759849617017
0.9923055748978552
0.99827782096235
1.0039028885576176
1.0073993854666898
1.0079631525822024
1.006316403939537
1.0043412838139019
1.0025766157840876
1.000846943101064
0.9973639897231348
0.992581243334829
0.9874832776988439
0.9849999699924743
0.9857417118259229
0.9895480243557189
0.9946351422334351
1.0011108120781225
1.0096900755441562
1.0224898658693446
1.0397620227169477
1.0616100595171896
1.086177727975657
1.1118028372210338
1.1378572535618154
1.1650297132782266
1.193666500308744
1.2236430896136332
1.254335735368212
1.2844166354849331
1.3142660137267494
1.3426591423433505
1.3682569603142474
1.3885912305612629
1.4019922350800675
1.4089164058759742
1.4133708237220397
1.4198930890206936
1.4298009289600118
1.4427096964772386
1.4544564566066598
1.4627763497794937
1.4660739564481824
1.4675367040378102
1.4671394537653029
1.4662817820503078
1.4627336200514711
1.4581253278457456
1.4525128711684476
1.4490136469628327
1.4477656589435381
1.4491976689124886
1.4509407336700242
1.4518188497740445
1.4521844380858266
1.4534307291558763
1.4565197486638481
1.4601205458762445
1.4620578955716654
1.4614042907748763
1.4595940653559831
1.4585325085584109
1.4599102516408757
1.461403076805881
1.462073039917164
1.4598072762379182
1.4568149783216044
1.454797765879537
1.4550322698214726
1.456756975144789
1.4576533533725433
1.4568291598345786
1.454904013831219
1.4544668470028546
1.456274527739705
1.4594611690703503
1.4614796249691535
1.4619058025265839
1.4610390788635366
1.4617538474209955
1.4645783616120005
1.4681538593986918
1.4697098327775548
1.4682297294969162
1.4645464946240985
1.4607316482106327
1.4576134516942358
1.4542754887832896
1.4483397285147317
1.438839259668907
1.4276389463341537
1.4168863074485336
1.407309510407479
1.3977795760743819
1.3861430813533704
1.3723645217078748
1.357365372978325
1.3431515889610912
1.330932995906574
1.3201397908224501
1.3084230794189797
1.2952567854569255
1.2812107537654152
1.269177675200082
1.2591619805902372
1.2501235713262524
1.240078201168975
1.2282306144875674
1.2150602642251218
1.2025115104998918
1.1910705611677457
1.179354147638584
1.1649892498689776
1.1478731874888233
1.1282919046030992
1.108572556724607
1.0899262219025874
1.0725370205397058
1.0545024506857783
1.0360519261909793
1.0180727817833088
1.0024845250558412
0.9902053376702963
0.980259876955409
0.9708068143529149
0.9610211130899661
0.9514294291502985
0.9438585583312054
0.9388320829943629
0.9354824381107084
0.9320165671564377
0.9277156237505322
0.9233678258868131
0.9200917257253469
0.9185541905531963
0.9178284734765707
0.9167635485100958
0.9147007569566135
0.9124245217438611
0.911152053710517
0.9117577323323421
0.9131396365123191
0.9146527213847736
0.9148113295981273
0.9149210930757726
0.9159645260689726
0.9189927978475763
0.9231154606140386
0.927180463247514
0.929991440206472
0.9324648508909646
0.9353879991519031
0.939774035681456
0.9445120991048783
0.9482435938113128
0.9495645170286352
0.9491034080012923
0.9482081384591341
0.9469207175828803
0.9447292212988285
0.9398906856442586
0.9317592527602437
0.9216639125916323
0.9111416730485921
0.9004262935996793
0.8897067316997361
0.8788171175201119
0.8683181543183847
0.8582907753526559
0.8489502811211177
0.8398146336846524
0.8312411765636337
0.82175837585353
0.8113943058947864
0.8002181781755973
0.7899019318284064
0.7803641747549755
0.7713231741384288
0.7613717383334088
0.7507477631875423
0.7399370348566711
0.7298009954707708
0.7205926828811985
0.7117464823918621
0.7022957276519531
0.692443050875381
0.6821109627477712
0.6729109269393067
0.6637346361123329
0.6552481656896303
0.645806509750229
0.6370569481447421
0.6274739945291133
0.6188977412463379
0.6105048454526976
0.6031242955817423
0.5959787564534637
0.5883615942031304
0.5811611687625473
0.5742147051726201
0.5681149097724323
0.562723491332875
0.5578737639697788
