0.4588825859781588
0.458078897057577
0.4575112113084727
0.45674789382414394
0.45626339504341795
0.45628825880160195
0.4572406763184256
0.45761253722287815
0.45854747545711266
0.4587837786445492
0.46080430397956834
0.4624434035104094
0.4663703009807506
0.4691860081053646
0.47385378125017813
0.47635771323611914
0.48061634523323593
0.48356833825226575
0.48807005957178606
0.4904154997706508
0.49282388688416473
0.4933558555344217
0.4948345245576988
0.495680495151097
0.4974598819605133
0.4974304817378284
0.4972441127416926
0.4951768120452618
0.4942493797764692
0.49274463012761516
0.4929548878766299
0.49181561649829225
0.4914540396558019
0.48990487486793244
0.4903223920208946
0.49095425247257035
0.49347065310197435
0.4950547262797154
0.49714857496425235
0.4981933519294261
0.5011615694782083
0.5046525157396481
0.5100397273147472
0.5145038426087364
0.519589287469214
0.5237492242536449
0.5293151818096623
0.5346590202139215
0.5412588565152466
0.5468804116800987
0.5527413241409671
0.5576730378128995
0.5641545254836662
0.5711372525541665
0.5795058998486888
0.586623533534176
0.5930505131431516
0.5977278977707025
0.6033454226508776
0.609344007958672
0.6174924754118514
0.6256419438796222
0.6349000840482544
0.6442356030337079
0.6558020740688892
0.6683209363886002
0.6823742099419785
0.6946768207934086
0.7051463430458202
0.7126958279400256
0.719865165581031
0.7263214894020168
0.7330114256697335
0.7381873464419458
0.7430495564163166
0.7471121394170556
0.75255091448557
0.7580797818548861
0.7635305724296207
0.7660410594877384
0.7662046672098158
0.764050608925619
0.7624017091186509
0.7614226033125934
0.7615719245118406
0.7605549330639751
0.7581777714756293
0.753521718848769
0.7480090790656736
0.7406360940936533
0.7315370635754317
0.718954789760021
0.7043046178952573
0.6884287138585635
0.6738631218590458
0.6609947050518442
0.6500980619983333
0.6391758322505132
0.6286606348692902
0.6179278657464127
0.6088800409139365
0.6008493172937817
0.5942198361620834
0.5870780601786603
0.5799776039530111
0.5724682910151927
0.5667586021145377
0.5623749145052167
0.5596211411586465
0.5563103185653718
0.5527490923340301
0.5484928849518264
0.5453169140878217
0.5428427312494919
0.541498801766779
0.5395238948732094
0.537382508647629
0.5343873734493861
0.5324181269530285
0.5310257758238072
0.5304935544843101
0.5290240591472612
0.5271165601572289
0.5243873765167718
0.5227748407107727
0.5218803404822177
0.5221211224297424
0.5217772482148947
0.5208835628502102
0.5194582553352441
0.5186926389833721
0.5190119199181159
0.5200150235392434
0.5204642652177911
0.5200765125847988
0.5192042454453499
0.5193162667224152
0.5203425364495226
0.5220722150475821
0.5230495396165789
0.5231456176431726
0.5225002855753579
0.5225412621512178
0.5234132241983015
0.5248022104514332
0.525364202395029
0.5248691749009989
0.524242083262777
0.5243495228723093
0.5258931055756384
0.5278494617928451
0.5295428407689599
0.5301757017500066
0.5306643643895411
0.531703524888171
0.5343669518731204
0.5374308291899078
0.540523304562867
0.5426792807267992
0.5453412160868565
0.5492117869283414
0.5554791644306418
0.563351794522237
0.5722261154492086
0.5815432273766986
0.5922624139878916
0.6057916932329319
0.6220891738329255
0.6412401078064158
0.6612256053481051
0.6818257402874103
0.7029680626757716
0.7261745646482963
0.7508433714404569
0.7752603041832405
0.7952663557466073
0.8073798325892809
0.8122097497775446
0.8141760068366519
0.8169189142886788
0.8216076192373607
0.8259194337441869
0.8292016330307821
0.8316175502387461
0.8357708274131378
0.841470911991118
0.8483539161032049
0.8538131313868809
0.8574096394593005
0.8587440493354701
0.8587864663374923
0.85832186651746
0.8568799126408906
0.8546674817819607
0.8513496014050593
0.8491649525111716
0.8495544406380804
0.8540710581920307
0.8612129707739614
0.86939448042383
0.8767030918027398
0.8838688693681823
0.8910527731143301
0.8982523445033511
0.9035227969550207
0.9056770246431259
0.9033664708274525
0.8978096332745414
0.8899948619465313
0.8814550986855447
0.8716614919071639
0.8603119276021066
0.8472353918672516
0.834042187613055
0.8223615002606481
0.8132293019834992
0.8053900904667073
0.797878739840811
0.7899253770187117
0.7826189555757749
0.7766737003388484
0.7732372245438246
0.7714896151815791
0.770274758860854
0.7689455231438553
0.7684439906409732
0.7694780896003973
0.7727951910941636
0.7768887779094009
0.7810002930302518
0.7838639572040071
0.7869936296892099
0.7916084809596864
0.7988257205685866
0.8070576802210415
0.8158320995628545
0.8239126092465594
0.8327166957226207
0.8427472286265546
0.8547900694105653
0.8679449467926679
0.8805783208510122
0.8911512951033687
0.9004348136415633
0.9085138837147372
0.9163220796961392
0.9218585854327466
0.9249707955709324
0.9240496944773233
0.9218370392413672
0.9195054148184589
0.9195688888822839
0.9203851836554733
0.9211202953293202
0.9197792634706841
0.9175430431553068
0.9141264722124655
0.9104249518170058
0.9040144572273571
0.894608427573042
0.8808366107027547
0.8656351235220711
0.8499192698718452
0.8362751575077
0.8230842885898413
0.8105922413008733
0.7979782672453551
0.786826150652523
0.7781266923328839
0.7728301492180285
0.7698295742077499
0.7681762080259688
0.7669369952858871
0.7667188818837207
0.7687626082231344
0.7733431916783462
0.7802518176548029
0.7875842490248987
0.7948105936357497
0.8012604898810288
0.8075623528280925
0.8139583283995168
0.8197866315406869
0.8240579123189099
0.8262441077785133
0.8276904536423924
0.83034073948229
0.835283194706427
0.8420450664636918
0.8486752969008036
0.8540369626957103
0.8593424101633232
0.8660646841841765
0.8747823865380729
0.8843714637748004
0.8929307079127612
0.8998137497332904
0.9047931381615922
0.9104509891088273
0.9170769276108273
0.9255060677889616
0.9327356125319237
0.9384654597802203
0.9431502932490223
0.9489103852671142
0.9559580232300207
0.9639156772114322
0.9707660008284528
0.9767713650100704
0.981770395936747
0.9871470074908167
0.9931727508404211
0.9988531892251099
1.002392505017133
1.0030929661395382
1.0014958150430175
0.9995471566319795
0.9977961915908266
0.9961117548449736
0.9927524915206541
0.9880923442675932
0.9830876191533354
0.9806770915550187
0.9813964148333175
0.9852831180743084
0.990447873642534
0.9970611425426567
1.0057200223385963
1.0185871629678023
1.0359799550671838
1.0579563645760792
1.0826999785250264
1.1084751054912727
1.1347125363364146
1.1621632006078442
1.1910704570696888
1.221309016080758
1.2522055160746197
1.2825051411900048
1.3124712001076682
1.3410475410722573
1.3667382281867266
1.387283615692735
1.40077091824332
1.4077524149568525
1.412194205339557
1.4186168872210472
1.4285047825710735
1.4412732146349698
1.453032733495022
1.4614759791537797
1.4648684647919457
1.4662923576650948
1.4655482334661392
1.46471609748041
1.4610335158117411
1.4564251767351089
1.450646229478599
1.4472942424407857
1.4461667956954345
1.4475324344296847
1.4491689249619721
1.450102075112126
1.450529502041599
1.4519436637473184
1.454928083917312
1.4586707206548681
1.4604330981365428
1.4599426880494666
1.4579791920858172
1.4569774162319302
1.458205177792835
1.4598494894285285
1.4604648767524708
1.4581544666577821
1.4549766115957041
1.4529254043978475
1.4532165279529523
1.4551257143200582
1.4561044639910241
1.4552362132644314
1.4532314802458455
1.4528487785286717
1.4546041186455663
1.457804171077475
1.4596516219873619
1.4600796335975375
1.45909621158242
1.4597301511903746
1.4626261980729358
1.4662326454073824
1.4678754834724723
1.4662997236838338
1.462765356355359
1.4591147622232723
1.45619290916615
1.4528440189846124
1.4468519963643451
1.4374555092078527
1.426254584571824
1.4156585175585032
1.4059445866490048
1.396444937522957
1.3846910192318878
1.3709456401998639
1.3558644330989986
1.3415849705215612
1.3293038919754292
1.3183529146082
1.3065383949058296
1.2933141700563788
1.2791346238663315
1.2669752743904494
1.2565658560754134
1.2475072651841759
1.2372761022498273
1.2254243981534043
1.212005012414588
1.1993268801867145
1.1876934278954239
1.1758997392273147
1.1614296966144348
1.144196650546003
1.1243825975440591
1.1044486368965558
1.0855892862029175
1.0680017780301294
1.0497812908915074
1.0311840221231423
1.013129624482491
0.997404754752025
0.9850241454339146
0.9749646448093331
0.9654531159577857
0.9556125360752297
0.9459555762765941
0.9383328698933456
0.9333062312915928
0.9299482690429369
0.9264786309691267
0.9221683555892533
0.9177998845746197
0.9145424679560179
0.9129521479135505
0.9122679493588135
0.9111803431104627
0.9091236507075954
0.9068154340113643
0.9055683319571454
0.9062039274144473
0.9076009980277601
0.9090669632076336
0.90927661914714
0.909369786587615
0.91045822322867
0.9134294763348375
0.9176465443581788
0.9217036318093906
0.9246082485177503
0.9269927952942768
0.9299801775891778
0.9343143296731062
0.9391740603983258
0.942931592436322
0.9443139629370264
0.9438287580734953
0.9429066233902021
0.9416126713537833
0.939415114580933
0.9346002847608557
0.9264415161832567
0.9163698477735209
0.9059328586057241
0.8952291603714242
0.8845160287515501
0.8736257293010973
0.8631573466552527
0.8531075825355573
0.8436755808684011
0.8344991363784444
0.8258464948961961
0.8163033816789748
0.8059512484052521
0.7949217116105364
0.7846988898266529
0.7750075516944946
0.7658163297526608
0.755891084649978
0.7454589269639715
0.7344523433411478
0.7241566151969738
0.7147247102638102
0.706114460403495
0.6968130832096336
0.6871339411922716
0.676917222068169
0.6675927683781389
0.6583280967697773
0.6495960463697802
0.6402480245457203
0.6313674505862062
0.6221612305778047
0.6137192248593528
0.6051158647111827
0.5976456686807446
0.5897588005383704
0.5825687227533858
0.574905804969372
0.5684386581527804
0.5624803554307155
0.5571615357815861
0.5516275508455575
