0.4605061186423721
0.4595947397167223
0.45896290579165533
0.458202646901724
0.4576894551829263
0.4577308664194497
0.45865466066029326
0.4590081866752698
0.4599783291199769
0.46021329073695527
0.4623072580254489
0.463908505068992
0.46791723303015276
0.47072084926579005
0.4754900850365862
0.4779692300713146
0.4822129853397858
0.4850867873912226
0.4895538593846727
0.49187253013596566
0.49428943076846704
0.49484259995774504
0.4963498533490524
0.49718442568885035
0.4990396752525192
0.4990122854121805
0.4988338460679589
0.49670629280372575
0.49576430769948693
0.4942807505363575
0.4944759692993554
0.4932930532208572
0.49287721204927365
0.49131923172977726
0.49173838657569957
0.49234987998519236
0.49483783650077556
0.49645428403539726
0.4985774076995743
0.49964468587970173
0.5025991956021936
0.5061131346167115
0.5115225873478582
0.5160127224798656
0.5210975081908509
0.5252693968003842
0.5308241740810551
0.5361834910159501
0.5427947649839877
0.5484513937444079
0.554269817960318
0.5591717839044651
0.5656327091524304
0.5726538214130218
0.5810100964966566
0.5881061179074137
0.5944920907179037
0.5991569012920294
0.6047383284875005
0.6106904600566821
0.6188331476624376
0.6269929278187493
0.636208939300583
0.6454486140976116
0.6569480045623439
0.6694175439686864
0.6834742279009478
0.6956799513663703
0.7060842235141979
0.7135390438069318
0.720656746067301
0.7270767751424463
0.7337284098044687
0.7389098983442296
0.7437421051008418
0.7477738857051215
0.7531289909777291
0.7586205003670554
0.7640297164315001
0.7664930922751324
0.7666284052190357
0.7644654946391143
0.7628804115136489
0.7619445438994676
0.7621318376929227
0.761132689591963
0.7587191395354334
0.7540515893591548
0.7485225051391249
0.7412723066933943
0.7322542379211923
0.7198170845357185
0.7052703540218612
0.6894620622559346
0.6749822072680971
0.6621520392170639
0.6513464719437293
0.6404658499952341
0.6300284129535743
0.6193111236239254
0.6102982653286808
0.6023101403209189
0.5957263464547137
0.5886086542559321
0.5815131519585118
0.5740243655524649
0.5682973605262969
0.5638889820098719
0.5611348035360935
0.5578590905827242
0.554307525986479
0.5500559183909782
0.546863826667355
0.5444001019334667
0.5430686189609438
0.5410866158442303
0.5389358837915921
0.5359523927755787
0.5339749541981539
0.5326094724132464
0.5320422182147398
0.5305868044604335
0.528627026511477
0.5258942933696844
0.524276926797706
0.5234058899470464
0.5236579032323696
0.523294615859369
0.5224082036453078
0.5209387118886007
0.5201930252769918
0.52048253994668
0.5215214985784319
0.5219756857644612
0.5215868042976038
0.5206950184629271
0.5207796322944729
0.5218254308512842
0.523562700637045
0.5245436308176468
0.5246310541025524
0.5239935243370747
0.5240421114904256
0.5249449938209623
0.5263236212892146
0.5268975489388332
0.5264070383760157
0.5257924764100262
0.5259002473777015
0.5274323528469146
0.5293872005596079
0.5310734067572056
0.5316659087677833
0.5321424481818264
0.5331812579090942
0.535862648826003
0.5389822339478214
0.5420713443376756
0.5442248837824463
0.5468518958922954
0.5507233717556106
0.557002021976277
0.5648297941691819
0.5736981803039127
0.5829696712512662
0.593664645662112
0.6071288705211854
0.6233877654464905
0.6424817548028957
0.6623905973160146
0.6828665700546303
0.703895806375372
0.7269230371565473
0.7514003493457015
0.7756082551829405
0.7954681750976204
0.8074755917094764
0.8122455180521782
0.8142053522424728
0.8169671476013074
0.8216689389216473
0.8259896576313489
0.8292044694156157
0.83156940147522
0.8356429993827154
0.841291981558575
0.8481421111357951
0.8535350918885802
0.8571295943063529
0.8584214534582534
0.8584940921171814
0.8579957835695201
0.8565866842371824
0.8544080040633567
0.8511492563083537
0.8489768960122094
0.8493185119581511
0.8538069276509548
0.8608445547496772
0.8689646913839055
0.8762149132614874
0.8833557388074039
0.8904496959494983
0.8975595445246882
0.9027157246969426
0.9049240561130516
0.9026157603162486
0.8971811248867934
0.8893595844657188
0.8809236300145645
0.8712225309219399
0.8600692229329012
0.8471668704228502
0.8341169507810601
0.8224744395563842
0.8133844488548141
0.8055751396672941
0.7981430854901906
0.7902246525891463
0.7829839798064164
0.7770607158207236
0.7736953729230653
0.7719714654693969
0.7708036087399603
0.7694673289232352
0.7689573401336245
0.7699519734650018
0.7732914537515195
0.7773425867588983
0.7814360336461846
0.7842402770989583
0.7873625959527498
0.7919447768700182
0.7990763549734439
0.8072696671988652
0.8159716403004861
0.823984807834749
0.8327024989529673
0.8426414005537128
0.8546202333515827
0.8676254845533808
0.8801232214657247
0.890629355892459
0.8998004339641119
0.9078564993109108
0.91554303658404
0.9210479686402095
0.9241411374402692
0.9231753438688688
0.9210269988738295
0.9186901598973762
0.9188195759553749
0.9195727990198289
0.9202705762161467
0.9189405371331609
0.9167752217112801
0.9134385451511028
0.9097303451691118
0.9034014150796966
0.8940677838391806
0.8804322806269408
0.8653067943934616
0.84973169926772
0.8362192639572201
0.823176484871486
0.810789421032472
0.7982518220989899
0.7871834860681306
0.7785463937072385
0.7733152545931063
0.770318234718736
0.7686685394711336
0.7674157183291546
0.7672262080179235
0.7692417582458135
0.7737858091855782
0.7806256404066916
0.7878958370087134
0.7950543907228617
0.8014194829881484
0.8076669275115278
0.813998987543796
0.8197737600681712
0.8240398375797289
0.8261945134428968
0.8276043511139941
0.8302056487219357
0.8351150422910992
0.8418526810762432
0.8484366154004793
0.8537562273189141
0.8589895767245846
0.8656305208097396
0.8742764622299998
0.8837883285090774
0.8923087452526167
0.8991475735197261
0.9041757087046057
0.9097580386404956
0.91630250561794
0.9246180279321586
0.9318474852331179
0.937552507903971
0.9421771424781568
0.9478113235567462
0.9547932343109918
0.9625770840272677
0.9693605627734492
0.9752879865520462
0.9802689775927999
0.9855741679386871
0.9915754210793198
0.9971698711134531
1.0007061615044053
1.0013373629713775
0.9997675963438326
0.9977987058719067
0.996066698445985
0.9943809169588982
0.9910268390487186
0.9863516652058578
0.9813132906258808
0.9788647546025867
0.9795601843700799
0.983443256481948
0.9884987577978782
0.9949945115646052
1.00357459998649
1.0163927754003186
1.0336658340553118
1.055404140412189
1.079984403985541
1.105560451704918
1.1316653660332716
1.15883300175611
1.1876690081777455
1.2178648704382717
1.2488498202405718
1.2792413898273385
1.309378225615473
1.338213017083322
1.3641932246859447
1.385032455832885
1.3986724719575883
1.4056338124300347
1.4101567498733802
1.416813724465932
1.427004616039802
1.440044255637601
1.4519569810313513
1.4604660724362921
1.4640222334690236
1.465548698560975
1.4650198093003812
1.463968268654953
1.4602765004001494
1.455480064982204
1.449791834825326
1.4462586936034814
1.4453442100588714
1.4467285097495626
1.4486173751710893
1.4492985146269792
1.4498612072307375
1.4512431480675143
1.4543943864313427
1.4579533161906837
1.4598321281540025
1.4593089432861748
1.4574254956879606
1.4564458018389443
1.457704528495642
1.4593188862148239
1.459818231909967
1.4575519098070406
1.454535624618646
1.4525073689739456
1.4528256464633726
1.4545259618899555
1.4554315434437652
1.454319654607178
1.4524057157920907
1.4519946806876238
1.4539214455470104
1.457082581217835
1.45898889395464
1.4594953319554942
1.458643660419814
1.4593906560198586
1.4624182899153466
1.46604896999966
1.4679029360623943
1.4662674287796384
1.4626618939014715
1.4586476820581098
1.4554798401028504
1.45209046324997
1.4459634749325003
1.4362608410640427
1.4246759881851583
1.413778723608429
1.4039476598402165
1.3941003127223037
1.382192178007415
1.3681786970353669
1.3530389987233848
1.3384990871217797
1.3260631015567796
1.3149873468208981
1.3030591094378796
1.2896820446564001
1.2754507840930251
1.263354719380612
1.2530996768057716
1.2440898326652774
1.2338753585290736
1.222030705678326
1.2087050306381495
1.1960980200961961
1.184528205541024
1.1727190309880884
1.1583396043126748
1.1411634166780507
1.121483033047492
1.1016456629356908
1.0830264850290523
1.065592277108744
1.047534572966925
1.029074078829371
1.0111758116434397
0.9956774215561515
0.9833877004982684
0.9734588986267754
0.9639886575873307
0.9542964405804922
0.9447630290040375
0.9372410023371816
0.9322385231007818
0.928912841504601
0.9255102601236614
0.9212226712809226
0.9169258392061839
0.9136638287400795
0.9121810023862374
0.9114893691213397
0.9104745157380691
0.9083819942946232
0.9060849390675986
0.9047956800675802
0.9054439268771729
0.9067994784705755
0.9083240087604227
0.9084159636034607
0.9085091040599559
0.9095460908146147
0.9125712231643712
0.916783775221368
0.9207355525463193
0.9235817110017269
0.9259798683474127
0.9289344566933012
0.9332696697692894
0.9379696487817145
0.9416943569354562
0.942985686636148
0.9425484415971092
0.9416033513229595
0.9403693255763172
0.9381271814417725
0.9333442522661556
0.9252530167588591
0.9151606624134719
0.9047127340431121
0.8939580605114721
0.8833544253546426
0.8725239225726927
0.8621857431268781
0.8521484086261626
0.8427385184877763
0.8336688350831981
0.8251509716013088
0.8158470782069404
0.8055101665849219
0.7944766578263838
0.7842872613055165
0.7747181381566837
0.7656531366100113
0.7558072266009072
0.7453860566261717
0.7347470489233965
0.7243086313832222
0.7149252129235376
0.7061452068803923
0.6970402350688696
0.6874422987907296
0.6771884759986196
0.6680258672608983
0.6587255018002623
0.6503671947978514
0.6409592781425233
0.632122231161517
0.6225588108166645
0.6138585396527952
0.6055303006337315
0.5982209747676673
0.5910369079358972
0.583301181449343
0.5761220787219483
0.5690359152017906
0.5631249045438528
0.5574487560525996
0.5528564562861076
