0.56082746722124
0.5397194927879692
0.5133376356335794
0.5558974382645154
0.5582079470451973
0.5668516511288307
0.5739735341870419
0.5683131435267682
0.576534543158542
0.5825670125235239
0.5794996989602438
0.5779403837565226
0.5733222596635591
0.5742593991880933
0.5810216126604216
0.5780123519083571
0.5748689495068066
0.5755719339308591
0.5760453319119699
0.5783584020619538
0.5787060667399907
0.5784307528780036
0.5806822529416493
0.5819232585603635
0.5857762369295509
0.5871385948534446
0.5867573974016024
0.5873409340584028
0.5878961612802741
0.5854591070522883
0.5873038097776035
0.5848978373983738
0.5871736986810351
0.587400902213322
0.5880014232076378
0.5903639014500157
0.5935094409549297
0.5960118795132943
0.5984259910150785
0.6001078952491379
0.6044853283604744
0.6083447175932468
0.6129269264179208
0.6186244083525778
0.623481981756886
0.6287730012866433
0.6321660271226616
0.6359784982518795
0.6383732628448572
0.6394493996083076
0.6401736509335869
0.6413195762916545
0.6424880417345131
0.643960888496675
0.6423658295380352
0.6432889914903793
0.6435507368993647
0.6434460936569056
0.6410621610762444
0.6408981543278304
0.6376110093961063
0.6385086896706088
0.6398354294438148
0.6402912734404852
0.6415546365257303
0.6431945637868133
0.6447731935784278
0.6490781401040872
0.654062295101018
0.6570427507630592
0.6606551267820814
0.6623270551272509
0.666367538189032
0.6722658748213987
0.6790783014021006
0.6858671639148233
0.6935874298355807
0.7009673717203859
0.7134058190816575
0.7258312489998635
0.736406465812643
0.7449480057309598
0.7547916882589862
0.7608587793646113
0.7733899203575396
0.7822764029967183
0.7901700779047225
0.7955936360843529
0.8048716392941724
0.8068641791090932
0.8056417696331639
0.8056792004293818
0.8031698952563601
0.8017347644796893
0.799446446594425
0.7984367557818086
0.7955283907217839
0.7961640533488009
0.7978385041868313
0.7959694927857359
0.7922626860179035
0.791318972150476
0.792912011649075
0.7905612994966473
0.7964677405787689
0.7915061733919405
0.7957695426374365
0.7985444183780991
0.79899560493447
0.794432740970434
0.7996157772656393
0.7967474831183406
0.7946828844826864
0.7882254659634276
0.7864143684823021
0.7802409843081347
0.7800106273276273
0.7765669472988668
0.7735874641331972
0.7762198723877387
0.7799042743640776
0.7809342588878807
0.7879491913396618
0.7861655404408856
0.7870417412188642
0.7902826420801523
0.7924499549776662
0.789416447604038
0.7918222413858581
0.794075076495644
0.7980655159989987
0.8018735090619712
0.8005736357166632
0.7996269541964076
0.8068245131693311
0.8082384130498406
0.8049109664892502
0.8080052170280614
0.808822621351873
0.8140670879064498
0.8175621302797716
0.81710892517829
0.8162182637159331
0.8164678060936766
0.8146230079867384
0.8105060346294659
0.8105118393116543
0.8083235538426434
0.8082224281686051
0.8099684247789986
0.8111254861244442
0.8114128671102269
0.8137876340238386
0.8157295844816986
0.818565871532752
0.8275625874057587
0.8419961150505535
0.8667123042865428
0.89382019185176
0.9252551369267388
0.9537685269374871
0.9920512577986277
1.016580773387744
1.0343074016063354
1.0389115350794988
1.037421828732995
1.0259875502801779
1.0198630706702754
1.0079497078107236
0.993691101212745
0.9809322756955877
0.9660925793681895
0.9528838786098194
0.9431965088968961
0.9297936356905911
0.9196070462139871
0.9173349974623042
0.9145500971959536
0.9156218264180036
0.9196402655536282
0.9271995169999634
0.9394650334380852
0.947220435079502
0.9566973763743416
0.9649470927005914
0.9775405141248947
0.9871618101684292
0.9933428321013474
0.9983848456102897
1.0102014254847904
1.0113467588000422
1.015289117330972
1.0156174108777969
1.015021238181075
1.013298362957192
1.0073936313418645
1.0030963415434548
0.9996975788464368
0.9956945220430707
0.9899545743529572
0.9870610888386305
0.9830255677900841
0.9816529898860803
0.9829086900167533
0.984007726059822
0.9857887299506728
0.9906507790252151
0.9937246410126378
0.9999123517210111
1.0067460079799369
1.0062539658875858
1.012820422084606
1.0168500775725624
1.0190989238080173
1.0245513110375366
1.0305220495660758
1.032995972375613
1.0312885545113255
1.0258743984802954
1.0242689800824367
1.0234318169780652
1.0180137588736913
1.0162381481749585
1.0204576653497477
1.0284930667539671
1.0385227726927548
1.0447611448132288
1.0511674145984164
1.0627593633165686
1.0686967908396292
1.0715060422496705
1.0721232208635305
1.0722900286403345
1.0712214972044276
1.0704316660634163
1.0665642701213838
1.0634842105902873
1.0622405633305507
1.0561128565780473
1.0543893866510918
1.0513322158655614
1.0531499155447586
1.0608496572899373
1.0652772833533668
1.0689669999653681
1.079397317844791
1.0848287796774017
1.101486906922224
1.1073828164224386
1.1066828503707224
1.1115390250404948
1.1091374487656482
1.0942453374068328
1.084848161087078
1.0464974198299544
0.9107768156582384
