0.4586304170846431
0.45782437540123744
0.4572613483496135
0.45645645792086803
0.4560058029381255
0.45601401887344556
0.4569740560651208
0.4573405758118045
0.4583118273783226
0.45852815546410525
0.4605362736858985
0.46212140716969036
0.46611127573915945
0.46890582664137537
0.47358254508917585
0.47605865854807683
0.48031928089520337
0.4832499280469464
0.48768804171952873
0.4899809363188335
0.49241327784208994
0.4929263437037049
0.4943972629230956
0.4952081855423496
0.4970207006556693
0.4970239123296446
0.496825599251133
0.49474421407811003
0.49381378083694005
0.49233513681616176
0.49258056988787435
0.49143771902440225
0.4910565936907635
0.48949098964419263
0.48987862776731816
0.49048394542287627
0.49294480355792913
0.4944978852047483
0.49658321777805936
0.4976250763199298
0.5005737261206626
0.5040366999002409
0.5094030173189333
0.5138402080090776
0.5189054145236075
0.523008631564767
0.5285243271846131
0.5338104220468205
0.5403891429523974
0.5460185407813044
0.5518116776042145
0.5567369528918072
0.5631275105794517
0.570109157574956
0.5783657648799255
0.5854674502313778
0.5917955332226008
0.5964586615430613
0.6020151882160509
0.6079670748618751
0.6160716292268514
0.6241768733111919
0.633379205531143
0.6426099248022612
0.6541118510923591
0.666579793284298
0.6806275643066426
0.6928268061734363
0.7032334716792904
0.7106890637823976
0.7178178037136991
0.7242766737941696
0.7309296229343001
0.7361589468029236
0.7409802969796097
0.7450469126339371
0.7504011859017705
0.755904336243747
0.7613363514178291
0.7638737431918655
0.76404539164466
0.7618535725482175
0.7601911592881827
0.7592070745797179
0.7594235168874176
0.7584021907283937
0.7559987573773955
0.7513194520455758
0.7458231476067547
0.7385171667482457
0.729483909843567
0.7169894626584363
0.70244086801418
0.6866388142404147
0.6721747182737459
0.6594035544693488
0.6486071475470803
0.6377475372857693
0.6272920947550087
0.6165907013369079
0.607610129135772
0.5996225389297571
0.593072186403195
0.5859675505632052
0.5789443348486918
0.571496176133795
0.5658089626392608
0.5614415107964659
0.5587243098324931
0.5554679774733979
0.5519341569319596
0.5476626838356632
0.5445192594012602
0.5420606708287447
0.5407392427446859
0.5387652502971456
0.5366457123687103
0.5336889636423612
0.5317217360014654
0.5303396196860376
0.5297760624876907
0.5283339835511955
0.5264007205787168
0.5237127758787316
0.5220786112634277
0.5212037695562541
0.5214359716515415
0.5211119723604227
0.5202257529673626
0.5187857717215886
0.5180223228952562
0.5183305514950541
0.5193692413086175
0.5198218681522775
0.5194345904732185
0.5185246226664508
0.5186100652714634
0.5196330305899262
0.5213632129061418
0.5223545934632098
0.5224427862929075
0.5217973102530198
0.521794911469392
0.522675411862069
0.5240335945929231
0.5246061885401844
0.5240575302469312
0.5234314364664042
0.523501214400506
0.5250322352107402
0.5269155068216119
0.5285946337565278
0.5291516540328975
0.5296220875305403
0.5305824567838093
0.5332495412155788
0.5362898920098504
0.5393747007659039
0.5414869289189624
0.5441349342544639
0.5479324952949887
0.5541859753243661
0.5619764391091344
0.5708459319901724
0.5800806758022273
0.5907202929511612
0.6041267129977785
0.620324741312589
0.6393997317820462
0.6592953250932765
0.6797781768740474
0.7008032392217656
0.7238923585498395
0.7484698916946944
0.7727615377223935
0.7926641575289082
0.8046808753840324
0.8094682852575408
0.8114527995166331
0.8141805735074158
0.818864140164912
0.8231710117695944
0.8264505714015142
0.8288794638154878
0.8330032405918285
0.8386735861179789
0.8455395882517455
0.8509460953833072
0.8545692804900135
0.8558411512037739
0.8559362242973364
0.8554295160232258
0.8540437600444781
0.8518298979622445
0.8486118386546001
0.8464037535298797
0.8468048128981552
0.8512416549230449
0.8583507410456768
0.8664446036695901
0.8737246512691068
0.8809124021870706
0.8880577393561083
0.8952205731665763
0.900364567565273
0.9025485765799082
0.9002373324167396
0.8948315979805841
0.887055434832213
0.8785612592656371
0.8687641331999394
0.8575246863300539
0.8445841871797173
0.8314835149577171
0.8198333146666033
0.8107268113766041
0.8029230653724857
0.7954432014609307
0.7875054721298401
0.7802198914952236
0.774293469365331
0.7708962796519009
0.7691479626558738
0.7679474983784019
0.7666037798502178
0.7661315464998238
0.7671402757163843
0.7704405080739283
0.7744962871377343
0.7786139192828875
0.7814669715311947
0.7845693600906327
0.7891598715788699
0.796349412117177
0.8045922298400918
0.8133302401968716
0.8213439079373859
0.830122978163191
0.8401089841416324
0.8521523466504989
0.8651688909770711
0.8777020654418339
0.8882310707274534
0.8974825522802006
0.9055913287970054
0.9133487097568114
0.9188845189278505
0.9219760503670231
0.9210354258738405
0.9188444569276933
0.9165149971188196
0.9166099214091195
0.9173850638193844
0.918113333334184
0.9167631857239323
0.9145829059248136
0.9111576409220797
0.9074988838136732
0.9011153389669707
0.8917048697400841
0.8779477405398631
0.8627696801146539
0.8471478761240734
0.8335328198077537
0.8203928653819674
0.8079323392231207
0.795340349925086
0.7842135565805692
0.7755501687026101
0.7703099542374654
0.7672872225007314
0.7656109382145565
0.764339864738081
0.764141204001639
0.7661914023990548
0.770755683983757
0.7776166696844008
0.7848784179507832
0.7920344605669761
0.7984383040759071
0.8046694369173975
0.8110074782004627
0.8167657684815248
0.8210956328880645
0.8232616502340877
0.8247405784102158
0.8273345780170939
0.832282607864509
0.8389907288387333
0.845570999883723
0.8508832746449526
0.8561771814271099
0.8628933660511066
0.8716149814063143
0.8811201130862067
0.8896384654847075
0.8964713359930319
0.9015115054994428
0.9071536831566893
0.9137240105077316
0.922091276687017
0.9293179241889077
0.9350844784019703
0.9397950166542784
0.9455062076862216
0.9525215101022375
0.9603511967597012
0.9671527977740138
0.9731337760027209
0.9781166380415501
0.9834494349472106
0.9894446430054316
0.9950618557502079
0.9985701883860282
0.9991916291199892
0.997556663903712
0.995529358818684
0.9937450807944866
0.9920023437854404
0.9886053625213227
0.983781444559703
0.9787252992602254
0.9762022496612648
0.9769346775818076
0.9807477589857254
0.9858440230608009
0.9923549763553955
1.0009872840468013
1.0138491868879302
1.0312742312473948
1.0531852936097947
1.0779855818565152
1.103805698849446
1.1302288257326845
1.1577613916295098
1.1868540344192449
1.2172125206453661
1.2483777871866721
1.2788634863083457
1.30921557580096
1.3380725766497756
1.364165674202161
1.3849138473122469
1.3985292639832565
1.405540259773608
1.4102068366429514
1.4168095952602686
1.426865929970558
1.4397452141841918
1.4516071590304351
1.459987009533124
1.4633579417912856
1.4648372827086786
1.464299373561015
1.4634162620779232
1.4598373157088356
1.4552631936622225
1.4495588362878007
1.4460995208188678
1.4449109019132682
1.446220242855543
1.4478939615735043
1.4487910505995951
1.4491853652866313
1.4505609907459744
1.4536369661848514
1.45732604076155
1.4592309492517777
1.4586563773894958
1.4568663007380456
1.455771738010367
1.4570434321455803
1.4587104347293343
1.459295311881056
1.4569402619433516
1.453851915912151
1.451787757922972
1.4521936096842007
1.4539458384123063
1.4549562423996227
1.4540668253950402
1.4520179395554111
1.4515755733267806
1.4533790201970815
1.4565237075719928
1.4583832596981623
1.4588266060599864
1.457986536049614
1.4588098929097035
1.4615547819325376
1.4650684964006604
1.466724038898806
1.4650873030276839
1.461583236839827
1.4577605927130641
1.4548867754171064
1.4515010809897475
1.445599774035611
1.4359976852864151
1.4246061387288387
1.413678345314782
1.4039438440220577
1.3943057468304363
1.3824410513656444
1.36845402471181
1.3531642408341782
1.3387176033923625
1.3262672000323434
1.3151701737935895
1.3031607074572444
1.2896876064235594
1.2755360341984099
1.263312496681553
1.2529973858926764
1.2439593284173898
1.23373207900962
1.2218603732483722
1.2082694552065687
1.1954758523949651
1.1837776625379535
1.17189715306779
1.1574407350023537
1.1401996072588712
1.1203810274216317
1.100389557536431
1.0815638570806592
1.0640440183122557
1.045936181001965
1.0273436167210066
1.0093323483507453
0.9936310367066269
0.9812988041421591
0.9712867156200211
0.9617785018599719
0.9519908977002373
0.9423589237831839
0.9347883921733292
0.9297439212100616
0.9263952817344875
0.9229634681567159
0.9186842125999798
0.9143476679413648
0.9111138535849501
0.9095642169066978
0.9088551457949825
0.9077700263980897
0.9057034130735963
0.9034320995923419
0.9021511926377366
0.9027875071218552
0.9041184537073106
0.905611232399571
0.9057754473023736
0.9059176537663012
0.9069959780767036
0.9099997295923724
0.9141875282041949
0.9181954223382585
0.9210266809800856
0.9234569831243926
0.9263838323903895
0.9307961348177801
0.9355251778375067
0.9393559891978082
0.9406715050416008
0.9402811256749238
0.9394034576124082
0.9381205138518445
0.9359209464034773
0.9310992355462198
0.9230971331306527
0.9131278957975043
0.9026411754675274
0.8919820014151797
0.8813591065894555
0.8706724620166584
0.8602396905859115
0.8501430858212649
0.8408511697456246
0.8316043576267199
0.823079721267168
0.8136899036288018
0.8036429436696331
0.7926286961664036
0.7824756782520562
0.7728458843738171
0.7639571153205944
0.7540060753072969
0.7435070698652674
0.7327267643970572
0.7224694757875175
0.7133732573312954
0.7045295055155011
0.6952638813926837
0.685587099142853
0.6755592641167302
0.6662052050938017
0.6569703678585657
0.6482827741069864
0.6392729610641418
0.6303603610361985
0.6210881541616113
0.6123828642500124
0.6040093720008173
0.5966476014235399
0.5890464224567882
0.5818169533912624
0.5742359911264661
0.5675130994877013
0.5614799124205704
0.556204611942201
0.5510123504680127
