0.46390591979705265
0.46317019701562584
0.4626297030351628
0.4618126687309032
0.4612771192238845
0.4612999259160438
0.4622467668569441
0.4626104743750225
0.4635731151929041
0.46382572333411937
0.4658732527383015
0.4674875609086352
0.4714933523965636
0.47436096782608933
0.479057149495729
0.481516892861144
0.4857395018434076
0.4886718966301198
0.49318066686578554
0.49550819442175736
0.4979514540059178
0.4984818281393554
0.49999202825386313
0.5008118891754985
0.5026408482913983
0.5026261597727664
0.5024211425981923
0.5003260316173483
0.4993652997307382
0.4978787566582496
0.4980657576928286
0.49690722291221684
0.49648495492734174
0.494903134281549
0.4953307181670908
0.49597164841268626
0.4984746314321548
0.5000536550777422
0.5021813351690492
0.5032760236855381
0.5062353492279692
0.5097724450614987
0.5151764220556629
0.5197269207325332
0.5248563940395297
0.5290704221072523
0.5346685233158358
0.5400523391793641
0.5467071786675161
0.5523962707133021
0.5582532415461182
0.5632279851243798
0.5697054789509933
0.5767720482404464
0.5851758842392724
0.5923679531069519
0.5988058621472668
0.6035112321374357
0.6091310076490416
0.6151845816924102
0.6233990408143014
0.6316428907418199
0.6409250339806375
0.6502880917936037
0.6619309349062611
0.6745414385801259
0.6887064716933919
0.7010097293216991
0.711502198198026
0.7190679075342421
0.7262819848617293
0.7328060237428918
0.7395077112362303
0.7447618395431703
0.7496319079138442
0.753743586870455
0.759178360275426
0.7647552772410612
0.7702071009951531
0.7727221886990265
0.7728436739646617
0.7706680732439012
0.7690310734995989
0.7680955517896871
0.7682771067468835
0.7672056779873878
0.7647652938553189
0.7600589277654546
0.7545278714050524
0.7471358092973769
0.7379947096116756
0.7253657047839033
0.7106688837683909
0.6946924430470673
0.6800707905665047
0.6671122975499233
0.6561787319456622
0.6451590529199973
0.6345942181081478
0.6237788300485354
0.6146977532927828
0.6066081446596724
0.5999286483757111
0.5927234696190482
0.585565210831154
0.5780149959367671
0.5722444523449123
0.5678255772515562
0.5650418848991219
0.5617318495119438
0.5581369990728011
0.5538607824238182
0.5506598405091128
0.548182078111402
0.5468251813094335
0.5448270759306729
0.542641859788489
0.5396234513851802
0.5376186541829094
0.536225910029876
0.535655908249647
0.5341996898746842
0.532273649435931
0.5295504683398728
0.5279156034779481
0.5270369997865979
0.5272670864707641
0.5269043108066311
0.5259823437503842
0.5245317007389777
0.5237785360757128
0.5240832550912901
0.5251328213389904
0.5255991890007714
0.5252370667006093
0.5243202075174105
0.5244125449592542
0.5254217272093357
0.5271979171289375
0.5281964878041349
0.5283292739259183
0.5276717284116061
0.5277087330386608
0.5286025684311996
0.5300258155804631
0.5306047013799484
0.5301451011940497
0.5295102123188816
0.5296632320724227
0.5311717635128679
0.533131649596678
0.534809241900572
0.5354618530284884
0.5359446984569697
0.5369986666833586
0.5396563468682267
0.5428004301620607
0.5458680793450885
0.5480775653780305
0.5507335666652236
0.5546626654728175
0.5609148915099396
0.5688226503443193
0.5777395828249551
0.5871216445343147
0.5978642144912429
0.611471946006906
0.6278774665886053
0.6471631197998216
0.6672686773096486
0.6879763662280979
0.7092344986243111
0.7325488069351429
0.7573305799317739
0.7818595511005973
0.8019463495064737
0.814106602150051
0.8189438041748756
0.820868291068387
0.8236209234847974
0.8283212922135513
0.8327040336045722
0.8359650125534667
0.8384142581181492
0.8425516792406128
0.8482764579195057
0.8551870609909957
0.8606528358560667
0.8642449809984882
0.8655482441654855
0.8655946293841192
0.865144633154231
0.8637232762322664
0.8615315643252782
0.8582046773874649
0.8559741149999354
0.8563502983575337
0.8608538388110661
0.8679913770263931
0.8761623341499315
0.8834792058777113
0.8906993779177735
0.8978877456971345
0.9051385540116578
0.9103301111609665
0.9125657342606681
0.9102173177905085
0.9047290794414774
0.8968148512644759
0.8882741672778118
0.8784344287642047
0.8670989896935722
0.8540809497281071
0.840874137944596
0.8291526507086922
0.8199488451929718
0.8120659621513825
0.8045610394355642
0.7965397888703942
0.789264359413496
0.7832654615967963
0.7798411640945695
0.7780521665501082
0.7768369801452106
0.7754914673084938
0.7749630200391597
0.7760016958491242
0.7793402356553321
0.7834334213969274
0.7875415019208384
0.790394056723925
0.79359190245124
0.7982308403452878
0.8055017839451273
0.8137644791965679
0.8225735711472645
0.8306363080547187
0.8394747632018958
0.8495248024502492
0.861665556661282
0.8747996169697194
0.8874688831853133
0.8980673479374026
0.9074086712540751
0.9155451701139331
0.9232947286817356
0.928826418611776
0.9319061628044172
0.9309859304890831
0.9287386558334378
0.9263903337733547
0.9264504833196684
0.9272825894855176
0.928028442137647
0.9267273805276933
0.9245051119662098
0.9211043523647688
0.9173803521380985
0.9109490022671095
0.9014882206168182
0.8876650698587317
0.8723955247599243
0.8566694675635576
0.8429953065266189
0.8297684186907721
0.8172218121098613
0.8045616547758311
0.7934134136975444
0.7846859747420182
0.7793988780675868
0.7763328969868676
0.774676231904234
0.7734136253177313
0.7732686256321594
0.7753235802709126
0.7799308579743993
0.7868203009831068
0.794151317406246
0.8013669383554128
0.8078133080148098
0.8141316070096415
0.8205651074758468
0.8264026053980077
0.8307054708155508
0.8328766643022695
0.8343415989254421
0.8369855857494646
0.8419317855725282
0.8486925781041914
0.8553396963241787
0.8607022708245654
0.8660283546139901
0.8727684313555415
0.8815293207644049
0.891096907626008
0.899657388458022
0.9065182197196939
0.9115661801934825
0.9172156003046402
0.92384236534525
0.9322183412017399
0.9394593940348216
0.9451910236427365
0.9499559086481614
0.9557079798990539
0.9628185327925979
0.9707118304517979
0.9775670407517953
0.9835668759206401
0.9886337757118764
0.9940454112849333
1.0000782600917064
1.005678442609997
1.0092023963769925
1.0098515467660814
1.0082508387585245
1.0062442626212862
1.004545862812775
1.0028796546817118
0.9995973105455367
0.9949202951738039
0.9898604537641693
0.9874189884399605
0.9881216191735376
0.9920457656525423
0.997147322955425
1.0036989776871958
1.0123207062967883
1.0251878425106518
1.042591077768853
1.0644876640545524
1.0891147996895119
1.114634476778483
1.1406903676717532
1.1678812608858555
1.1966636715355268
1.226680883636801
1.257324531134944
1.2871490829187022
1.3165478182281385
1.3445934768544339
1.3697514733226155
1.3899032259332
1.4030326610315977
1.4098569922577782
1.414143804841381
1.4203850073420095
1.430105325452134
1.4426676094106832
1.4541081383277528
1.4621433754674023
1.4654003271892992
1.466763949394944
1.466203834231472
1.4653534417785445
1.4617903040993134
1.457324788569324
1.4516356726670727
1.4483667599694268
1.4472150734534535
1.448795234931567
1.4505483413428366
1.4513861003544861
1.45173117477407
1.452938721057928
1.4559635433837623
1.459405941053496
1.4611873090891834
1.4605690088664964
1.458773416280269
1.4577591957604867
1.459082444328287
1.4606933922755145
1.4613138099247844
1.4590685343497558
1.4559291952726
1.453978231215707
1.4542127108581597
1.4559460881042536
1.4568974414533171
1.4560014047670478
1.454146880635359
1.453669393003227
1.4553833711318
1.4584629023063216
1.4603958527731333
1.4608321124422021
1.4599576819145044
1.4605846215337728
1.463469651321597
1.4670875388428706
1.468669013728139
1.4672033117943293
1.4634126913624097
1.4596927230976413
1.456736375098405
1.453682602485893
1.4479740330046869
1.4386674040048306
1.4275379795670067
1.4170316171887112
1.4076644016129447
1.3985413037880252
1.3871411731041403
1.3735759710548838
1.358647959799074
1.344608905346549
1.3325503290967367
1.3219711184285188
1.3102418122693837
1.2971949252822834
1.2831648592477916
1.271291067293141
1.2611458836620595
1.2522005373923213
1.2421963002519556
1.2304729421899143
1.2172716392131322
1.2046972650104806
1.193275227601759
1.1815835019473258
1.1671719055474685
1.150007335721591
1.1303164072677307
1.110541869925043
1.0917727647770707
1.0743103027334289
1.056159759826296
1.037633750647749
1.0196231736509165
1.0040178247985336
0.9916795614071979
0.9816991518362904
0.9721583918701904
0.9623922960049662
0.952657852345319
0.9450941307110629
0.940024752739588
0.9366899933849019
0.9332152934716031
0.9289146020972807
0.9246074189075735
0.9212844079741057
0.9196991429739415
0.9189817736083842
0.9179175856451243
0.9158631559618269
0.9135361025409796
0.9123183913779276
0.9129445118158773
0.9143664954525959
0.9158254898420343
0.9160063085300403
0.9160815729274162
0.9171319487875295
0.9201190374575728
0.924350726065792
0.9284027828616128
0.9312804123711947
0.9336425367459146
0.9366272791524564
0.9409478606359147
0.9457922878708026
0.9495493823767344
0.9508878360884405
0.9503542832873111
0.9493419429300894
0.9479888480836809
0.9457129872891384
0.9409089315311562
0.9328086997404448
0.9226994591919515
0.9121166753969887
0.9013419457794545
0.8906029172453531
0.8796331002397152
0.8691831117509377
0.8589752452619456
0.8496204654006945
0.8403940635672991
0.8319635786707453
0.8224268241378935
0.8119591791429182
0.8007384698515536
0.7903936119072485
0.7806369325649407
0.7714959539622467
0.7614652585277081
0.7509709061787639
0.7398942856215415
0.7297559311256545
0.7203150878678524
0.7115024010729918
0.7017752385820901
0.6920307198596275
0.6819126882846184
0.6726627850085388
0.6633628450558012
0.6546101021271545
0.6454109619077443
0.6365686015486098
0.626975634216463
0.6183673077903311
0.6099654069006293
0.6029272994524207
0.5955195700401699
0.5878691657614447
0.5802692674891241
0.573137108093773
0.5672422605691748
0.5618234072612104
0.5568922413037458
