0.4614767227912983
0.46065886591538113
0.46009333774644023
0.45930143454790956
0.45882631107473354
0.45886938425303747
0.4598407448463827
0.4602516984582334
0.4611830659922499
0.4613864015373781
0.4634637888659195
0.46510881473773075
0.46911251979105906
0.47189049993079074
0.47657624145188604
0.4790617421130397
0.4832944234226028
0.4862416911233747
0.49070674989679036
0.4930791047189006
0.49548453935758846
0.4960393422678765
0.49751716649490363
0.4983959423520811
0.5001935867509991
0.5001546078554914
0.49990358325833534
0.4978210633210529
0.49687534057651994
0.49540087180108067
0.49560930401677095
0.4944382191732201
0.4940273893800603
0.4924514358795206
0.4928728165049315
0.4935115838012591
0.496019470839379
0.49761370122609616
0.4997280372252059
0.500784775456588
0.5037637777995827
0.5072780139095656
0.5127304633202254
0.5172383377337925
0.5223358020480815
0.5264833949903681
0.5320538552606408
0.5374032726059694
0.5440619224364613
0.5497338042770359
0.5555904869205851
0.5605139849319984
0.5669683104247717
0.5740097504919391
0.5823837370843128
0.5895384150263332
0.5959760398246009
0.6006444913018546
0.6062602674545757
0.612256786914762
0.6203694438454123
0.6285497346364927
0.637789499878127
0.6472113971937195
0.6587701564721342
0.6713224361496993
0.6853523443945232
0.6976348503267594
0.7080414125422595
0.7155416922359095
0.7226585733572903
0.7291046784430236
0.7357951801588385
0.7410040640699075
0.7458758330124458
0.7499419181030296
0.7553174772647988
0.7608349617251268
0.7662430865036881
0.7687327572785755
0.7688497420275993
0.7666914918203647
0.7650781549679483
0.7642044419717988
0.7644076444469169
0.7633931721775985
0.7609312605032654
0.7562064424634718
0.7506994745207068
0.7433723359628311
0.7343425314319729
0.7217728829029629
0.7071760128038311
0.6913034730755662
0.6768168217984011
0.6639443895230247
0.6530820643101383
0.6421387913073059
0.6316407849842315
0.6208556125935382
0.6118040510557304
0.6037794114188797
0.597183027144275
0.5900227284572139
0.5829119739403136
0.575391588420498
0.5696247192487757
0.5651882512146181
0.5623971746383638
0.5591211106448403
0.5555675320278073
0.5513132619971625
0.5481251576911323
0.5456287660373651
0.5442873598577568
0.5422901507239694
0.5401487034319541
0.5371392148090323
0.5351484007825676
0.5337471805205426
0.5331942806284369
0.5317274459451826
0.529790465125132
0.5270736649846822
0.5254435855180043
0.5245431905327268
0.5247540317671195
0.5244020879680847
0.5235316337072075
0.5220892569757529
0.521331204228954
0.5216152664140844
0.5226560786290413
0.5231147519421179
0.5227229798270697
0.5218232879316719
0.5219399104143218
0.5229776471908658
0.5247233263260148
0.5256878457715481
0.5258071582311595
0.5251662943013353
0.5252078162397604
0.5260771297889622
0.5274523728339385
0.5280198895864029
0.5275291634240276
0.5269185307621919
0.5270448376176893
0.5285811519753477
0.5305259031468262
0.5321683223533772
0.5327904614324123
0.5332831155538408
0.534365494594249
0.5370489718662997
0.5401406124967706
0.5432138864145316
0.545354034633143
0.5480232255798853
0.5519242793955343
0.5582265536782888
0.566114543096345
0.5749890045782508
0.5843089825062534
0.5950191734143137
0.6085632835801563
0.6248770842223107
0.6440506566270245
0.6640307122911602
0.6846372884374324
0.7057451547085102
0.7289020515560171
0.7534710125259059
0.7778208582269256
0.7977725795859838
0.8098477808827833
0.8145983516677208
0.8165566851200968
0.8192904739933506
0.8240094249545433
0.8283224344527438
0.8315633445592233
0.8339610008372085
0.8380883560349269
0.8437887152520523
0.85067377124384
0.8560970629944998
0.8596469981203706
0.8609068450259095
0.8609421868900609
0.86048729680294
0.8590642125503944
0.8569074361597949
0.8536523588025395
0.8515028934842354
0.851879943813749
0.8563617972203886
0.8634427140358869
0.8715453387155522
0.878814566720677
0.8859269135493406
0.8930960256278595
0.9002319381570147
0.9054764089024069
0.9075932670860627
0.905254358640961
0.8997888567944137
0.8920205309485544
0.8835819743089599
0.8738375353336468
0.8625805688024594
0.8496313879972514
0.8364840274315233
0.8248737040181798
0.8157562678723392
0.8079719643459156
0.8004632048256034
0.7925400122212637
0.7852084610101517
0.7793004108786179
0.7758910978102139
0.7741971298502008
0.7729791001847887
0.7716141714584996
0.7711033573834944
0.7720987261193207
0.7754518836784013
0.7795516995598532
0.7836752032174457
0.7865019469853746
0.7896262300167887
0.7942247447664343
0.801415000472818
0.8096242745112388
0.8183855044530023
0.8264167155782632
0.8351767942879921
0.8451247119974665
0.8571437905822551
0.8701690394339886
0.8827310367480433
0.893188795763181
0.9023931522895733
0.9104699128420303
0.9182210561164713
0.9237604932083484
0.9268328639364961
0.9259059967182978
0.9237002446671624
0.9213718150344863
0.9214518744288662
0.9222707827301908
0.9229866880496074
0.921694012783357
0.9194564709727212
0.9160721931240268
0.9123615744158887
0.9060211352911332
0.8966529410185458
0.8829213281859568
0.8677768639316175
0.852153529597737
0.8386110273384059
0.8255141795868456
0.8130934269424452
0.8005070399526334
0.7893742956161829
0.7807045157723332
0.775429864004841
0.7724006136405347
0.7707447760717423
0.7694808768868077
0.7693217073611257
0.7713302337865457
0.775931185931938
0.7827850049966418
0.7900994829327918
0.7972709703430471
0.8036451394803803
0.809887416487936
0.8162346937812097
0.8220642078107463
0.8263457924636634
0.8285249674067022
0.8299654892803499
0.8325802363073411
0.8374949713431623
0.8442205390952245
0.8507773885363675
0.8561152386199832
0.861398757649949
0.8681421402806835
0.8768385900776225
0.886357237207735
0.8948366786497114
0.9016415618699769
0.9065992299155812
0.9122636970894665
0.9188181757311423
0.9271520350003338
0.9342919035364485
0.9399757992508511
0.944650540383344
0.9503614646824393
0.957415584972654
0.9652837979153293
0.9720243183756434
0.9779690742450802
0.9829238421829477
0.9882758339177597
0.9941968166673946
0.9998126694297487
1.0033249707850986
1.0039726774375313
1.0023074602145832
1.0003146568884485
0.998560612943256
0.9968859759302413
0.9935887188442595
0.9889060038503409
0.9838858414417758
0.9813578636544942
0.9820841993162454
0.9859204474912444
0.9910152264243947
0.9975079793335158
1.0060849776510425
1.018901710980867
1.036134160719297
1.0579302435334894
1.0824373702177832
1.1080396658026677
1.1340240251922398
1.161197000712783
1.189852128468039
1.2199637742649205
1.2506940099570738
1.2808720450419384
1.3107440249996556
1.339393288415508
1.365142351901403
1.3856695707014224
1.3992546025332864
1.406237241029854
1.41080019504652
1.417204800486784
1.4272882376271514
1.440202855463379
1.4523035775911575
1.4608152324719088
1.464277010966563
1.4656578130355822
1.4650477411997522
1.4641496621956542
1.4604504456621141
1.4558259594961314
1.4501608796083438
1.4465712398819186
1.4453292954854016
1.446694940784125
1.448528204848662
1.449547666666241
1.4500360171330264
1.4515229140188997
1.4545628246853608
1.4582040656828952
1.459945072039862
1.459392729919532
1.457551815118363
1.4564644258113544
1.4579017008538184
1.4595190970389988
1.4602045258507617
1.457857010052636
1.4546836091936115
1.4526311318320817
1.4528443260191033
1.454679222943139
1.455722961815325
1.4547375125037407
1.45278495436752
1.4523320370247228
1.4542076481073267
1.457402488994423
1.4593554642068731
1.459972166218837
1.4591074511222746
1.4597881010488047
1.462506841221877
1.466185079143005
1.4679150157517344
1.4664929959212756
1.4627328524056058
1.4588556292518795
1.4556036751986297
1.4521701708839503
1.446177435580111
1.4366843795009
1.4252401847412177
1.4142624238210573
1.4044397041973404
1.3948574835411585
1.3831328110427143
1.369321364287293
1.3541657719174787
1.339791165542309
1.3273840203627973
1.3165154924130122
1.3046886867924752
1.2914360441696333
1.2773128971029044
1.2653007133409548
1.2551772964286558
1.2462092136803804
1.2360513352064268
1.2242755456053134
1.210960675999213
1.1984041006930741
1.186852789803222
1.175139268951067
1.1608041144769679
1.1437237371843778
1.1241265919579366
1.1043550188506388
1.0857498762118218
1.068331973948836
1.0503689372191605
1.0318754750521868
1.014002381566124
0.9983934757343598
0.986164077843465
0.976201242844099
0.9667497107363959
0.957004762575629
0.9473853898250247
0.9398301649496319
0.9347903940237325
0.9314974895988197
0.9280843380610555
0.9238352996233499
0.9195308063134722
0.9162719946152689
0.914688655829906
0.9139837049886864
0.9129638296416088
0.9109613870829366
0.9086330718306911
0.9073645170410252
0.9079438864087184
0.9093376734029447
0.9107771178481443
0.910953106377856
0.9110575082144229
0.9120838539447418
0.9150549270786502
0.9192393983915197
0.92327968542886
0.9261575392406802
0.9285386611009826
0.9314936298271052
0.9358280726039191
0.9406236070682411
0.9443697632461546
0.9456061038840949
0.9450534473305616
0.9441048618812516
0.9428251040506349
0.9406163009626636
0.9357112643948361
0.9276174006125871
0.9175616922138835
0.9070773285018146
0.8964375225010942
0.8857294721034936
0.8749443537842758
0.8642928937746603
0.8541462937998486
0.8447290741375907
0.8356153253457569
0.8270335695467276
0.8176265542316499
0.8073309719835486
0.7963997098441963
0.7860683309821903
0.7764894498579846
0.7675048939388454
0.7576388431476743
0.7471453797705472
0.7360991454127475
0.725863359959756
0.7165459950677864
0.7077609682106584
0.6983075370285212
0.6885238019376486
0.6783772080199459
0.6690511767619362
0.6600387468996102
0.6513399257779712
0.6421861110260562
0.6330361102050761
0.6237776244089048
0.6150767203541925
0.6068818010584399
0.5994532844954497
0.5921184836926118
0.5845346032238178
0.5771554924121057
0.5701923358075471
0.564204362591735
0.5589065727459943
0.5543902660400738
