0.45497813255486474
0.45421370507579834
0.45364830588199845
0.4527998127800327
0.45235782824261406
0.45235987022271085
0.4532935868925749
0.45362125077746435
0.4545745819473599
0.4548594021498129
0.4568959543682798
0.45849475061056383
0.4624151396967448
0.46519884708111037
0.4700252516699932
0.4725024304596885
0.4767456137516371
0.47952322206664943
0.48398710845206677
0.48629170990687565
0.4887243435682064
0.48922544199302276
0.49072775399854407
0.49157085782574256
0.49340150300734825
0.4933602703053148
0.49316631043594245
0.4911060270508924
0.4901907981635251
0.4887180884991991
0.4889362786459188
0.4878065426555306
0.48742912255075377
0.48586191722288224
0.4862888846847281
0.48690333746496706
0.48940408625725423
0.49097029676498044
0.49303980656120683
0.4940573234633822
0.4969471442065987
0.5003962681326285
0.5057669619882373
0.5101740083559586
0.5151894837327795
0.5192517875286414
0.5247617014851136
0.5300626718652316
0.5365799629607405
0.5421664006515582
0.5479302391212754
0.5528159805127357
0.5592065098833592
0.5661332950613204
0.5744208627540551
0.5814656011055421
0.587823766169958
0.5924300346727294
0.5980054107228049
0.6039352298990456
0.6120078979783465
0.6200920276375496
0.629226371041547
0.6384307703309209
0.6498111526689443
0.6622257467108638
0.6762093538871105
0.6884381827901251
0.6987879351241457
0.7062332056381722
0.7133033702617632
0.7197193062937464
0.7263067376324276
0.7314443565750721
0.7362793426841793
0.7403199317131537
0.7457103673851371
0.7511802009430014
0.7566126793701272
0.7590824745245932
0.7592604304244559
0.7570920891297855
0.7555049329766598
0.7545478763159095
0.7547387343983218
0.7537180293027231
0.7512976654662858
0.7466525732231438
0.7411522923066407
0.7338936629350818
0.7249097034922013
0.7124409408410208
0.6979140333747595
0.6821657646738526
0.667777977038293
0.6550366122798843
0.6442769156303538
0.6334691842141984
0.6231128954075588
0.61245659626932
0.6035253161655857
0.595575603125102
0.5890776138607792
0.5820146914230376
0.5750262298604759
0.5675955572805614
0.5619480822896932
0.5575959510684597
0.5548905941688695
0.55164844533643
0.5481198045559807
0.5439071500383861
0.5407743212071104
0.5383263396358373
0.5370503750517824
0.5350773547326644
0.5329880964868328
0.5299870903700213
0.5280329483630943
0.5266662367882677
0.5261033215250022
0.5246787084768886
0.5227475667362582
0.520087449273535
0.5184866537851383
0.5176287263045006
0.5178695048281232
0.5175016419101862
0.5166174085470934
0.5151669638970685
0.5144298361326485
0.5147328576561067
0.5157659829873733
0.5162004500412598
0.515799592174968
0.5149047563393641
0.5150022695001821
0.5160408088339398
0.5177312555123199
0.5187008168960332
0.5187510393026002
0.5181307396516772
0.5181299400150364
0.5190350978574102
0.5203805954832712
0.5209621701103393
0.5204070907768835
0.5197886175031898
0.519824898911254
0.5213427685605903
0.5231975071292702
0.5249055569465175
0.5254443437383834
0.5259444040222183
0.5268709916703287
0.5295909509312637
0.5326138005403287
0.535727262713554
0.5377895382527115
0.5404335834647094
0.5442554295430702
0.5504915598058243
0.5582572515719769
0.5670790563159341
0.5763134656913272
0.586921879289723
0.6002969788500978
0.6164101467116675
0.6353881933731962
0.6551721165742711
0.6755773046875808
0.6965247517438538
0.7195182849269702
0.7439891880292543
0.7682019184587235
0.7880142779252429
0.8000028500785196
0.8048093868487669
0.8068081883667089
0.8095174856998205
0.8141499810898478
0.8184039673577325
0.8216423929359143
0.8240366880642951
0.8281380207277115
0.8337937982995131
0.8406750048896531
0.8460544920802348
0.8496781238921086
0.8509500901906916
0.8510497100200919
0.8505311023402224
0.8491309805303998
0.8469580232719878
0.843710344391134
0.8415128018031285
0.8418644870727243
0.8463261348758626
0.8533926452875261
0.8615267168336298
0.8687588483084343
0.8759402896150981
0.8830611665225345
0.8902548140927283
0.8954073640302934
0.8975940808145015
0.8952755726040383
0.8897993529629279
0.8819427095394972
0.8734774513775622
0.863725001993026
0.8525322907623226
0.8396344951910263
0.8265729835465069
0.8149652744274437
0.805881873789297
0.7981302121516053
0.7907224064924953
0.7828191336778577
0.7755364108630687
0.7696354575547841
0.766245439902808
0.7645388350883819
0.7633181778176181
0.7619995649284356
0.7614808719468972
0.7624857498921374
0.7657891542495059
0.7698739994448213
0.773927301639297
0.7767465712423176
0.7798484210260771
0.784477993908533
0.7916091056093205
0.7997857572753859
0.8084657539031858
0.8164582142416134
0.8251692721207483
0.835149663329008
0.84716992672174
0.8602175993483241
0.8727424123947879
0.8832257189638814
0.8924554713021926
0.9005103241247081
0.9082208440717757
0.9137487348284684
0.9168176670887273
0.9159273911571568
0.9137244480532238
0.9114323883120904
0.9114821461584829
0.9122785886124128
0.912955138618255
0.9116737426618546
0.9094234263707298
0.9060642941779787
0.9023524049686339
0.8960244789301145
0.8866531080584059
0.8729765555043081
0.8578696427265482
0.8422584630600455
0.8286994262169394
0.8156044561417193
0.8032044252934472
0.7906603959197042
0.7795882977210781
0.770966489002773
0.7657422034624286
0.7627489957124274
0.7610947663375911
0.7598347367110264
0.7596493204651841
0.7616875836686472
0.7662334321886295
0.7730358838794863
0.7802781068282696
0.7874138654057282
0.793825831929891
0.8000168524035424
0.8063843937491689
0.8121168976829172
0.8164573933936218
0.8185883630497971
0.8200608701584223
0.8226288848142044
0.8275653537051919
0.8342526992257415
0.8408347852837146
0.846149327412732
0.8514322218126903
0.85812585754403
0.8667528323247977
0.8762897686393954
0.8847935986257209
0.8917093499232122
0.896707579692366
0.9023846610573822
0.9089246609017111
0.9172881025150417
0.9244549679557985
0.9301443804982347
0.9348013326768888
0.9404709373413824
0.9475053747181577
0.9552887002017846
0.9620776405985688
0.9680026272187697
0.973004765806297
0.9783010305096557
0.9843152399826887
0.9899664056584199
0.9934851209101027
0.9940906841670113
0.9924161636353556
0.990475279908795
0.9887706112951579
0.9870844880147931
0.9836740190406343
0.978875991126219
0.9738106480678081
0.9713674777398938
0.9721257118347786
0.9759953821116814
0.9810761047452494
0.9876322474214385
0.9962449702875008
1.009108438839594
1.026469203737162
1.0483894027847
1.073225861716895
1.0990820141809585
1.1255090725583272
1.1530256272328878
1.1821769331833234
1.2127219820238107
1.2440788178058868
1.2748677361865222
1.3055143781360181
1.3346633111812072
1.3610306890213573
1.3819637740174897
1.3958605932963881
1.4029231504367126
1.4076252055927434
1.4143660399837334
1.424634716606451
1.4377152395637363
1.4498468177049
1.4584003810492032
1.462068254368596
1.4635393847368685
1.4630417370483928
1.461997008776795
1.4581341536518904
1.4532711173020243
1.447431064310849
1.44404794027619
1.4429406370920819
1.4444696542155573
1.4461635713847647
1.4471052816586818
1.4475337577643272
1.4489498819836706
1.452109273662235
1.4559442665113314
1.4578875487096998
1.4572288354740608
1.4552342228658237
1.4541359073530646
1.4555332396375937
1.4571951107912096
1.4578212986483536
1.4555575618006766
1.452339447711865
1.450350557489843
1.4506456659140898
1.4524270813224966
1.4533751295403299
1.452276584593668
1.450357502028787
1.4499224289240684
1.4518772240172861
1.4550695440081454
1.4569614979987482
1.4574457615841874
1.4566257677150387
1.4573010791228478
1.46021572655067
1.4638840747350288
1.4655892926597227
1.4639822405923293
1.4602550999763033
1.456448045098834
1.4532913398025733
1.4497033693265613
1.4436580359405844
1.4339282712943042
1.4225943142931683
1.411573803298838
1.4017225373415751
1.3917361704167144
1.3797035546685419
1.3655210337124128
1.3500943130171938
1.3353351198194798
1.3226557504321952
1.311466698778567
1.2992991778541332
1.285727911395175
1.2713212128823252
1.259070047198762
1.2486991486787307
1.2394553829326933
1.2290622850215995
1.2170611041454384
1.2035336332068016
1.1907832385422985
1.179016471916782
1.1670885335376293
1.1525244621312307
1.135199580392863
1.1153564066059416
1.0953643319819528
1.0764759589113913
1.05887146028568
1.040696172883164
1.0221309738769648
1.0041609795882362
0.9884725677509324
0.9761283519726843
0.9661466768529428
0.9567014796451807
0.946973056819734
0.9373124778060954
0.9297475197831623
0.9246909243052269
0.9213630296803794
0.9179054377700072
0.9136012771496893
0.9092719908680857
0.906070795690366
0.9045316920722005
0.9038394617928805
0.9027171453734781
0.9007088355025291
0.8984576555014657
0.897201075320145
0.8978193215862216
0.8991791995527573
0.9006985620917398
0.9008371948236719
0.9009298107025072
0.9019716534967389
0.9049792114278031
0.9091386027285805
0.9131977141472415
0.916059450739077
0.9185502768802967
0.9214434775385045
0.9258704200734584
0.9306064509742866
0.9344381617533181
0.9357347396951172
0.9352717979876298
0.9343546802758697
0.9330689483977673
0.930898190680117
0.9261055511792656
0.918053934857172
0.9080915143943464
0.8976731175406918
0.8871035041741675
0.876553654244892
0.8657687801912936
0.8554004582645831
0.8453190567922148
0.8360924085277195
0.8269938492659242
0.8186266360980473
0.8093223441582231
0.7990790558293506
0.7878423909325764
0.7776870297599668
0.7681784842553873
0.7593994906097236
0.7493006694032779
0.7388409732489358
0.7280799749300587
0.7181502682664438
0.7089311993372855
0.700072078577923
0.6907525844556248
0.6811215490898719
0.6710474850773218
0.6618483052288446
0.6526417098515717
0.6441470842124621
0.6348502303050254
0.626008303798837
0.616778684586671
0.6082738621919871
0.6002144377164313
0.592859338932441
0.5855610025910684
0.5779845875345241
0.5704449123177537
0.5636113215244
0.557813007759463
0.5523262071773948
0.5464989203585513
