0.4652667095597595
0.4644896894439077
0.46393286653830396
0.46314509391474146
0.4626537243165967
0.4626782871755728
0.46364654295979446
0.4640321322885499
0.46499854445489314
0.4652148453043934
0.4672784552936424
0.4688837564286221
0.47289681913897835
0.4756727261197365
0.4803499333581258
0.4828236857191072
0.4871002650299831
0.4900765722752097
0.4945592152265602
0.4968750307883438
0.49928567590683937
0.4998364140210188
0.501344133349752
0.5021642661670856
0.5039829266061977
0.503994072217222
0.5037867353837094
0.5016813227082144
0.5006936630279395
0.49921852200545813
0.49942465634414657
0.4982589192232815
0.49785321530716
0.496269906001952
0.4966715611867485
0.49731316236805667
0.4998324589188775
0.5014666633393025
0.5035457875554221
0.5046205668229824
0.5075502989296
0.5111143643998748
0.5165255393386642
0.52104635004348
0.5261676830168824
0.5303554653045942
0.535932918504183
0.5413012046083766
0.5479169084679341
0.5536200375293504
0.5594452460876411
0.5644301172879762
0.5709075588219075
0.577985926881295
0.5863840516005634
0.5935110394660653
0.599910976190048
0.6045739973762556
0.610215789997825
0.6162768286728983
0.6244563806214422
0.6326744883634331
0.6419042479826763
0.6512778080390682
0.6628315952414638
0.675436596580539
0.6895256305469682
0.7018530514729937
0.7122900615478364
0.7198128266100792
0.7269932931070887
0.7334670989995788
0.7401715392501987
0.7453687050009469
0.7502647612106925
0.7543668584371124
0.7598315634901602
0.7653795886907593
0.7708122035755178
0.7732601709702341
0.7733879299909558
0.7712363222346855
0.7696056819848929
0.7686545054609913
0.7688413209772776
0.7678546220078456
0.7654248135527065
0.7607192608846933
0.7551080501267917
0.747738906501594
0.7386444397279875
0.7261155071164226
0.7114976345068996
0.695534021095653
0.6809435232918858
0.6680045415004674
0.6571446566758983
0.6461945828922533
0.6356656766438277
0.6248565579425541
0.615771115457683
0.6077373908728019
0.6011126050902812
0.5939347158241582
0.5867968214670194
0.579255181607374
0.5735110786527952
0.5690882756723608
0.5663050567736383
0.5630162357004127
0.5594145499677246
0.5551588255318965
0.551964364337446
0.5494817098848942
0.5481366048936765
0.5461246474590238
0.5439964657493462
0.5409600545992296
0.5389796687467991
0.5375574306639629
0.5370147150511546
0.535529160590195
0.5335830989459704
0.5308561700867909
0.5292172297978665
0.528329813523473
0.5285815831772349
0.5282497705479314
0.5273924097402104
0.5259113890909247
0.5251579332116177
0.5254539064732091
0.5265040605575603
0.5269577135632367
0.526573749805261
0.5256774397053563
0.5257858945280318
0.5268120374819288
0.5285737904983356
0.5295573871431335
0.5296633816521309
0.5290330360929197
0.529091482268393
0.5300014431622906
0.5313911610833348
0.5319610111653806
0.5314847393234648
0.5308347739917686
0.5309734400711771
0.53247951381296
0.5344647873382825
0.5361257010206006
0.5367688179732923
0.5372494823907745
0.538319846786443
0.5409790628104459
0.5440916214642049
0.547151701642455
0.5493384180622664
0.5519865544431332
0.5558815868659704
0.5621461628626357
0.5700293633379766
0.5789321791492553
0.5882760990637674
0.5989978357746908
0.6125451206453779
0.628889717421384
0.6481061836398845
0.6681508404688296
0.688789508405315
0.70997897856084
0.7331901889698503
0.7578730903077326
0.7822962596035268
0.8023262480802507
0.8144104741204622
0.8192011675117086
0.8211935596919083
0.823996766816909
0.8287247615808443
0.8330403689216745
0.8362815250580885
0.8387224182670435
0.8428561421354821
0.8485763347520622
0.8554513180902976
0.8608913844781714
0.8644872352346622
0.8657867302528346
0.8658382368701028
0.8653632830490927
0.8639093906915615
0.8617496347844322
0.8584692665196193
0.8563124739031919
0.8566495548618601
0.8611516594038117
0.8682810044016742
0.8764702071602426
0.8837449733208808
0.8909263192609771
0.8980528619474436
0.9052069496468379
0.9103837905729827
0.9125986838386544
0.9102866465860021
0.9048045403979491
0.8969787735034257
0.888520203626915
0.8787527766710698
0.8674564133483815
0.8544407569492558
0.8412581437532263
0.8295622692784077
0.8203957803110893
0.8125371738748732
0.8050590352469996
0.7970926284632317
0.7898188070984474
0.7838152016627262
0.7804191430666447
0.7786365758035776
0.7774836922157322
0.7761196168945161
0.7756408361932428
0.7766149518314306
0.7799478446415653
0.7840305168608487
0.7881814045910033
0.7910069434522928
0.7941452919404952
0.7987559755779314
0.8059916062054355
0.8142497337125028
0.8230222417826188
0.8310744876271111
0.8399033376309084
0.8499373784390445
0.8620124203707963
0.8750855388924803
0.8876668782739146
0.8982177538835647
0.9074634775282494
0.9155673995219519
0.9233583960101278
0.9288967383752628
0.9320082448266468
0.9310757459416923
0.9289109466184697
0.9265462369256631
0.9266334876903112
0.927385463770889
0.928148097214398
0.9267842264665024
0.9245715969832583
0.9211423596907622
0.9174851368884231
0.91111580818005
0.9017123046759898
0.8878990133155099
0.8727003854215472
0.8569990283536706
0.8433599561397567
0.8301902461153421
0.8176979938747854
0.8050696154663783
0.7938837866842334
0.7851868347358635
0.7799121418209235
0.7769016176265268
0.7752343856206534
0.7739903144220586
0.7737680153647245
0.7757992075405115
0.7803867483688188
0.7873223373051569
0.794647479583511
0.8018125736322483
0.8082203380187201
0.8144807385767283
0.8208914153558818
0.8266727476139244
0.8309883580655096
0.8331409544956957
0.8346001780584423
0.8372010339547542
0.842161255318328
0.8489141351625992
0.8555427342005222
0.8608806708109121
0.8661728922093929
0.8729059040256975
0.8816391245128913
0.8912392806949063
0.8997750517618984
0.9066534580812313
0.9116650215976975
0.9173329540784808
0.9239113938690239
0.9322884838854124
0.9395369213214927
0.9452575625174926
0.9499467153659562
0.9556629106560713
0.9627287172445032
0.9706057213782995
0.9774068208939201
0.9833825834586871
0.9883723179774418
0.993747229604982
0.999763723512917
1.0054099323048236
1.0089059346205584
1.0095928032268389
1.0079910625480588
1.0060909328328307
1.0042787185835056
1.0025828219328683
0.9992042572420113
0.9945115945175811
0.9894706110002008
0.9869719848659793
0.9877339762854034
0.9915625888718838
0.9966583468845529
1.0031581552603563
1.0117580798363932
1.024562244475376
1.04182432549936
1.0636824786575656
1.088274377014643
1.1138538822473651
1.1398564723104379
1.1669536867291428
1.195583987358896
1.2254684049012838
1.256006508447411
1.2858913521179152
1.3154133932471646
1.343559729283235
1.368786088492074
1.3890035756619996
1.4023205448393927
1.4090174562093927
1.4132785582987837
1.419412804478766
1.4291563887342114
1.4415938123523455
1.4531351339734344
1.4611580196763274
1.4644706388592477
1.4657995476403898
1.4653209478041622
1.4645412121571102
1.461095886782629
1.4567304578163507
1.4511105044044614
1.4478241784503465
1.4466327723986705
1.448148294755562
1.4498030134249287
1.4506916571654431
1.450937961138055
1.4521674165312237
1.4551003182417106
1.4586613826397563
1.4605284757099029
1.4599640546414296
1.458139890988551
1.4570696220288373
1.458342150210169
1.4599785680554636
1.4606295832596083
1.4583923690542024
1.4553186977617822
1.4533339862541028
1.4536841789857653
1.455375069809779
1.456353724874261
1.4552914261058336
1.4533900184520376
1.4529498951278959
1.4547400444342604
1.4579059824384888
1.4598161222992516
1.4602924974944465
1.4593987101381356
1.4599335463216105
1.462808807317684
1.4663562326968793
1.468024846523258
1.4664064781673973
1.4628097823545998
1.4589851764102826
1.4559844757729767
1.4526790502784843
1.4469418418619846
1.4378323182093211
1.4268098055377048
1.4163310439465002
1.4068281299547971
1.3975446688004869
1.3859803264355914
1.3724756091279562
1.3576377727288798
1.3435571598441967
1.3314652141345877
1.3208393500246234
1.3092760907553591
1.296203883926772
1.2822070783121413
1.270276163943604
1.2601774081084847
1.2513050986179712
1.241251349582007
1.2295470421595034
1.2163077342147477
1.2037844564855922
1.1924192473287503
1.180728341584739
1.166508042284343
1.149321294791288
1.129756720710644
1.1099254997429788
1.0912794420478584
1.0737907344602893
1.0558308011636968
1.037313052857603
1.0194296070142772
1.0037298691199847
0.991449610028483
0.9814712726017586
0.9720512138540947
0.9622943793371371
0.9526384955259942
0.9450738212281031
0.9400233646157985
0.936718422446679
0.9332128806497992
0.9289610199930147
0.9245738377456594
0.9213381912846782
0.919774025311218
0.919128829764658
0.9181036676262857
0.9160380058375225
0.9137076547102363
0.9124321908579837
0.9130894131160289
0.9144731849109804
0.9159379035457345
0.916047198194828
0.9161390978336142
0.9171907935201734
0.9201957855656306
0.9243942036894366
0.9284099136223964
0.9313081804442614
0.9337543076175593
0.9367328451910301
0.9411159270681744
0.9458321124517715
0.9495720076855081
0.9508174347169884
0.9503545267622933
0.9494607053797345
0.948172625425358
0.9459264696802053
0.9411007250353911
0.9329673905224547
0.9228775038635828
0.9123392308546399
0.9016789846106904
0.8910232976112433
0.8800726776716565
0.869491904923298
0.8593933287234726
0.8499801193498614
0.8408015491479932
0.8322010664967591
0.8227158963823537
0.8123824446976712
0.8011552969976795
0.7908903816487348
0.7812136677087467
0.7722772141601975
0.7623516968120079
0.751697136418268
0.7406844616850887
0.7302829129302808
0.721076722120702
0.7120580611112248
0.7027817367455202
0.692979667123552
0.6828910057933217
0.6735385019653916
0.6643164780354206
0.6557472698141692
0.6464387254161702
0.6378288889144618
0.6282901802830348
0.6197799638543124
0.6109517846270736
0.6038877047928042
0.5961126164145092
0.5886680152771165
0.5811624740536007
0.5746256079559607
0.5685358978671698
0.5629776988399744
0.5578446190642882
