0.4603153441230456
0.45959333704835037
0.4590880160130241
0.4582701253988143
0.4577885205031776
0.4577306814468507
0.45872123953914223
0.4590488480550819
0.4600266166261761
0.4602433309510014
0.4623607660055832
0.4640124459553073
0.4679987609362401
0.4708514835592226
0.4755160938090154
0.4780167100291485
0.48224369363597264
0.4851952395838489
0.48966750207966275
0.49194926723656074
0.4944064931267692
0.49494134617447944
0.4964545139179202
0.49725018720902786
0.4990623586934831
0.49905311173025635
0.49884288261233467
0.4967562173344409
0.4957605132409405
0.49430460085210937
0.49448556412612305
0.4933585399794678
0.4929718384126584
0.4914218123075414
0.49186050951203636
0.49249635136868253
0.4949884958776486
0.4965801401153502
0.49865462047931014
0.4997237356610908
0.5026610628889292
0.5062139999451685
0.5116318257034115
0.5161393569652988
0.521212831836451
0.5253910587238132
0.5309854796126149
0.536365694390489
0.5429952025805809
0.5486461483023988
0.5545082084416324
0.5594793476106429
0.5659898388624947
0.5729859186172829
0.5813476563197539
0.5884868327116195
0.5949251845913083
0.5996175615901583
0.6052127292345727
0.6112771022170371
0.6194474583206436
0.6276912396708829
0.636930614404045
0.6463017332842381
0.6578346074457819
0.6704077943285882
0.6845129379323067
0.6968261727568552
0.7072571929394276
0.7147508917109011
0.7218905263754006
0.7283942649547708
0.7350864962473476
0.7402977224078742
0.7451212369489615
0.749187652172405
0.7546439154705575
0.7602120282695128
0.7656580977068524
0.7681468431674877
0.7682962124102654
0.7661200470396767
0.764493128356238
0.763515970606124
0.7637034177009637
0.7626454872269001
0.7602306353900714
0.7555279363287477
0.7499813513233112
0.7426167743462487
0.733567855231492
0.7210124967551028
0.7063844939889276
0.6904568386156111
0.6759408482940774
0.6630149137579102
0.6521249079669567
0.6411140294023812
0.6306285170366727
0.6198417599481687
0.6107823787163231
0.6027016498550901
0.596081525370138
0.5889247574980753
0.58182024962871
0.574298749976035
0.5685377530569979
0.5641140608051283
0.5613058552279773
0.5580139444248993
0.5544418873621694
0.5501699233377775
0.5469868876738034
0.5444869692120672
0.5431767068044434
0.5411550118900035
0.5390108215354562
0.5360031613208472
0.5340458100167085
0.5326653143686154
0.5321185781780784
0.5306401473904171
0.5287046664026219
0.5259703043354752
0.5243577969015351
0.5235009331388207
0.523739902775199
0.5234060309629774
0.5224699512210943
0.5210125372450454
0.52024013461596
0.5205550494512042
0.5215987255202396
0.522034521306382
0.521648570507655
0.5207446885974291
0.5208643636914929
0.5219074590943906
0.5236542361757497
0.524627156372608
0.5247189915534265
0.5241098280702938
0.5241529707458218
0.5250342181538515
0.5263775986641624
0.5269580114556467
0.5264745462501828
0.525853497611776
0.5259636039171962
0.5274785321202146
0.5294334898347656
0.5311176713627815
0.5317616792414728
0.5322410094195873
0.5332664047292583
0.5359345897947742
0.5390343100795428
0.5421316289106195
0.5443149100129783
0.5470034846144906
0.5508965964448114
0.5571666734650844
0.5650303136493064
0.5739436961454417
0.5832826844891057
0.5940197051851772
0.6075907730507811
0.6239134990598288
0.6431308522409883
0.663143639844993
0.6837929140453499
0.7049534182715562
0.7281480098865145
0.7528487762830263
0.7772727915678066
0.7973050914509447
0.8093714094564286
0.8141635471797003
0.8161072840863711
0.8188607321774068
0.8235518808724903
0.8278902537285826
0.8311590672056851
0.83358855028707
0.8376962878900415
0.843407004039175
0.8503182834585458
0.8557501045469736
0.8593276889239921
0.8606416038619807
0.8607579745536461
0.8602672511538969
0.858759220082365
0.8565477674045908
0.8532829399911817
0.8511256084503439
0.8514909343934569
0.8559839606382972
0.8631341878979187
0.8713006300118981
0.8785974257681402
0.8857717154937228
0.8929320682837713
0.9001644675181067
0.9053281673143209
0.9075393303509391
0.9051531988670466
0.8996748451628692
0.8917701889753111
0.8832898576210315
0.8734998477024921
0.8622370342963511
0.8492073557203823
0.8360421174924566
0.8243521712130137
0.8152020845116931
0.807398584439841
0.7999172962934195
0.791953637162873
0.7846381151967303
0.7786639304101751
0.775245256689608
0.7734953588001767
0.7723035381578016
0.7709659824685074
0.7704600494260381
0.7715041411199524
0.7748509637855747
0.7789665548191557
0.7830519972592748
0.7858844652019039
0.7889928908615305
0.7936161909452603
0.8008341700758146
0.8090908054906248
0.817886020477654
0.8259363028849104
0.834768350223523
0.8447550938247869
0.8568396207137415
0.869898692030372
0.8825040038019295
0.8930656644068813
0.9023377025815874
0.9104230833407478
0.9181340308133081
0.9236770135704195
0.926769404069779
0.9258351121869625
0.9236219837510502
0.9212961722352037
0.9213937356596548
0.9221650053689332
0.9228942631805798
0.9216165250959015
0.9193982897276767
0.916003085279801
0.9122780458650664
0.9059121073461621
0.8964897201712311
0.8827213824256792
0.8675340257138646
0.8518787182351603
0.8382231569681238
0.8250339769639371
0.8125325931392395
0.799930220112851
0.7887741309889694
0.7800761684910806
0.7747881213950585
0.7717616506419348
0.7701387833202392
0.7689194053021162
0.768758281619354
0.7707950886185042
0.7753798138844825
0.7822712374728442
0.7895640420143971
0.7967573581919937
0.8031918198843528
0.8094163520860816
0.8157955536313076
0.8216115667479157
0.8260049886257653
0.8281888548484506
0.8296266833328099
0.8322057701293741
0.83716661718722
0.8439352738326209
0.8505542148582781
0.8558695866323132
0.8611284845758562
0.8678432732681459
0.8765698064693537
0.8861456454105551
0.8947342003374833
0.9015628515440148
0.906587715288457
0.9121776412373287
0.9187733202168008
0.9271535798183009
0.9343650399402803
0.9400846761169701
0.9447390965304903
0.950431080103366
0.9575020428031494
0.9652881886301715
0.9721592098493834
0.9780946159468473
0.9831401693543432
0.9884598876301757
0.9944422133242682
1.0000624359774446
1.003552357322922
1.0042679561829913
1.0026449852436112
1.000689787414532
0.998898243097869
0.9972457703105291
0.993897846086733
0.9891939236995354
0.9841309628462491
0.9816869768504447
0.9824361660454397
0.9863346898763934
0.9914365500433723
0.9979675615796845
1.0065695066434754
1.019419251678868
1.0367477131145488
1.0585853512079877
1.0831703058700881
1.1087651900618056
1.1348405741545124
1.161997442652365
1.1906105343599374
1.2205902382530793
1.2512609128480958
1.2813460792073474
1.3111078639283733
1.339430797776578
1.365060336846394
1.3854089751219631
1.3989466817304679
1.4057444006483104
1.4102781412885506
1.416625197436514
1.426587751130484
1.439332243530718
1.4511636556914596
1.4594855303054848
1.4629491775807044
1.4644662798001618
1.4638472570831578
1.4629517947649011
1.4592979425463484
1.454723522001854
1.4489756355825354
1.4455244980155684
1.444451233285443
1.4458070573196111
1.447539491061436
1.4484611384765183
1.4488959683876046
1.4502712081118734
1.4533034249007948
1.456988969981672
1.4588963970266866
1.4583748550107174
1.456492181989773
1.45540774457549
1.4565980716101699
1.458282097963469
1.4587772133345807
1.456644679629125
1.4535410238127267
1.4516099789109593
1.4517575793300124
1.4534697756428827
1.454534363440682
1.4535233738761417
1.4515888146119906
1.4510306073735468
1.4529574267736058
1.4561518782627705
1.4580484655384518
1.458501999211601
1.4576370092612487
1.458356644637277
1.4611718501060806
1.464773586584127
1.4664437680262237
1.4648717396275348
1.461259729544454
1.4575290564531498
1.4544925583931276
1.4510714954721995
1.4450265418917179
1.4356578194137324
1.4243976550288573
1.413702219602165
1.4040778947322123
1.3945782490101144
1.3827808615374142
1.3690667355843376
1.354037252296554
1.3398986678613827
1.3275416746349764
1.3167308628522898
1.30502884117454
1.2919221449322102
1.2777911984078751
1.265772785949602
1.2556023843633182
1.246768953118154
1.2365496042115984
1.2248668042002342
1.211575456561826
1.1990950166530503
1.1875794377490196
1.175922262059068
1.1616065638762667
1.1445149059499085
1.124790003640517
1.1050211040645874
1.0862765664765508
1.0688202232061197
1.0507642057417212
1.0322436913398334
1.0143013488475687
0.9986348168421193
0.9863549905339866
0.9764168579353866
0.9669649671725496
0.9571939378974526
0.9475573614413219
0.9399670109068389
0.9349020138501727
0.9315567572468668
0.9281207882230242
0.9238447795813561
0.9194575549829808
0.9161673533172937
0.9146410402816294
0.9139618612014097
0.9128985411783312
0.9108006823341881
0.9084799290531334
0.9072290416236988
0.907840031615989
0.9092411229418021
0.9107319911360456
0.9109309048505807
0.9110123011731693
0.9120889496303959
0.9150652544252457
0.9193145967533695
0.9232982307723082
0.9261757078338951
0.9285373141420583
0.9314948152019696
0.9357958796710467
0.9405638392601122
0.9442812317234138
0.9455737534618748
0.9450726894538449
0.9440555992268742
0.9428062473784614
0.9404702012260072
0.9357409377004068
0.9275079354373698
0.9175283364111962
0.9069086466142572
0.896211604209116
0.8856033212030393
0.8747605077433954
0.8642467399347373
0.8538790638078209
0.8445014052576741
0.8354640677760415
0.8269024828833879
0.8175510045907332
0.8071400004247195
0.7962224558314697
0.7857531859481435
0.7759578418726999
0.7669014904392623
0.756975072025632
0.7464636760831941
0.7356395725824018
0.7254820572294064
0.7161177274355672
0.7071401864308463
0.697659138827082
0.688166492866499
0.6780117511402541
0.6687834712629895
0.6594903391406479
0.6506835790543455
0.6412090152049252
0.6324918183051409
0.6232238447446489
0.6146771591282263
0.6059721470446686
0.5985290390039221
0.590871533170729
0.583463545126419
0.5758241374826187
0.5692656474685452
0.5630972613816148
0.5578355955634947
0.5527947225916621
