0.45546789627000245
0.4547764277247843
0.4542432010636156
0.45351498375545035
0.45308546600313154
0.4530900776033497
0.4540201303847075
0.4543643908153262
0.45533251671932357
0.455590975247702
0.4576353424130566
0.45929406907194237
0.4632149351950254
0.46601104649174047
0.470625423319896
0.47311550454259754
0.47735357589006266
0.4803065664716138
0.48475818554215355
0.4870697433292837
0.48949103228395296
0.48999704821370993
0.49144723666332546
0.4922415486057183
0.49406241622518277
0.4940575347407389
0.4938823256032257
0.49182254249872126
0.49088605114801553
0.48944265473554543
0.4896535130909365
0.48849506075334814
0.4881208884510466
0.4865773372600983
0.48703654143678854
0.4876369311800314
0.4901270245041237
0.49166046635378857
0.4937250927916955
0.4947575500605094
0.4977076890679248
0.50118395577396
0.5065224511380269
0.5109468897329794
0.5159618492754174
0.5200550727225873
0.5255421857829352
0.5307833933117325
0.5372674017356327
0.5428444381912425
0.5486295098309604
0.5535465170683495
0.5598926362453299
0.5668200329749608
0.5750713887169625
0.582112381491684
0.5884429355982564
0.5930258311342731
0.598538024729027
0.6044852631355571
0.6125315106991316
0.6206893797446681
0.6297583295021048
0.638982193600954
0.6503273052063444
0.6627558511269452
0.6767033869229854
0.688843483776301
0.6991500418734354
0.7065482100015414
0.7136641536691912
0.7200867183662258
0.7267181455592989
0.7318038535260344
0.7366005124550465
0.7405721017270631
0.7459920755900514
0.7514968058039054
0.7569184348786632
0.7593582265720866
0.7594654057530243
0.7573165284180376
0.7557073168285775
0.7547598120047243
0.7549963696903121
0.7539617391016818
0.7515468467834429
0.746794561503762
0.7413585601008641
0.7341549057403858
0.7252247473823684
0.7127975048542672
0.698296372533238
0.6826147710711521
0.6682352949278068
0.6555512231114163
0.6448027095087724
0.6340222667679715
0.6236611512076224
0.61304366707829
0.604126416528664
0.5961954984264483
0.5897171096366519
0.5826758068755421
0.5756910033161119
0.568240883474771
0.5625873778338378
0.5582232680752326
0.5554859300956764
0.5522531944102134
0.5487405278142643
0.5445849003893879
0.5414425656815791
0.5390003154322085
0.537708721601506
0.5357486559667113
0.5336243976105899
0.5306225100058802
0.5286823576166672
0.5273636413512817
0.526825338900661
0.5253535514626485
0.523420437122536
0.5207624756182024
0.5191824624760825
0.5183219642198543
0.5185644033194822
0.5182145734045321
0.5173352994985958
0.5158812140536
0.5151208747193495
0.5154179051204633
0.5164775104454836
0.5169129133384719
0.5165025885964992
0.5155570970788736
0.5156733851140641
0.5167057961812209
0.5184332443143496
0.5194138617949745
0.5194808457620266
0.5188265394880603
0.5188201865504453
0.5197302074093358
0.5211258893342129
0.521677256076328
0.5211247813626416
0.5204502537747201
0.5205192316030216
0.5220704506546209
0.52401557483739
0.5257306499975472
0.5262895566826944
0.5267528398104662
0.5277276091965327
0.5303877908097423
0.5334280108377049
0.5365046397450745
0.5385862963049521
0.5412316967849908
0.545034021765673
0.5513028301735998
0.55904408264778
0.5678721058182777
0.5770329850236722
0.5876277817631889
0.6009421305135071
0.6170549196586236
0.6360277445456659
0.6557938225593218
0.6761486049897553
0.6969594203303254
0.7198636456716802
0.7442551376185207
0.7684285248448715
0.7882335890678868
0.8001806165018078
0.804928892525283
0.8068383148779815
0.8095691190861884
0.8141861372294363
0.8184959627776506
0.8217206637543472
0.8241851627061321
0.8282521929414381
0.8338601656034084
0.8406190658306684
0.8460323653901699
0.8496167800392214
0.8509725717382534
0.8510136707082785
0.8505382043779337
0.8490576762736158
0.8469014244174278
0.843626497148653
0.8414892323914173
0.8418827123807701
0.846414168668108
0.8534731288377759
0.8615212947478683
0.8687126332028092
0.8758456627112167
0.8830080459238512
0.8901500755224486
0.8953365004981685
0.8974518494439614
0.8951494837397633
0.8896633857649218
0.8819273057259966
0.873447619244849
0.8637711643876146
0.8525261381773739
0.8396722993908782
0.8265771574481344
0.8150401288901497
0.8059864029682009
0.7982468346181215
0.7908451436398519
0.7829669265009561
0.7757324510973321
0.7698429721106979
0.7664653911498515
0.7647605514628653
0.7635266742436224
0.7621903814677695
0.7616922775470305
0.762725649193118
0.766026486284565
0.7701129588477711
0.7741841011647741
0.7769919613976419
0.780067286632057
0.7846134931831363
0.7917390093678824
0.7998540911780001
0.8085676732212482
0.8165623887021295
0.8252935930598101
0.8352213818657752
0.8471398391120498
0.8601701947110958
0.8726445266217048
0.8831769364776739
0.8923221753159438
0.9003861302155335
0.9080820022599259
0.9135769134292426
0.9166375032995847
0.9157106617392862
0.9135124508529254
0.9111993374584675
0.9113095245162831
0.9121521683439866
0.9128398996927698
0.9115019981761037
0.9092725195475335
0.9059796405848357
0.902318742194571
0.8959953766986868
0.8866034039177587
0.8729127988032981
0.8578021130780162
0.8422310737371667
0.8287202840748484
0.8157402351390654
0.8033771251724788
0.7908339955616224
0.7797438874849196
0.77115846836523
0.7659559556052337
0.7629734352926026
0.7613098691296581
0.7600907626301261
0.7599446682708005
0.761978764427392
0.7665226780484979
0.7733421904193425
0.7805892568253148
0.7877208417753583
0.7940370152170546
0.8002346119723568
0.806547810108324
0.8123262713548657
0.8166106663160342
0.8187703557521142
0.8201945084950714
0.8227732487271228
0.8276813352702149
0.8343604587494118
0.8409315944462228
0.846251978241747
0.85151395083329
0.8581812707275494
0.866826587004625
0.8763490794814873
0.8848601812383176
0.8916937135329395
0.8966905150831165
0.9023411848782403
0.9089208702247564
0.9173278064462527
0.9245594797077524
0.9302176202178372
0.9348475000206558
0.9404636268233484
0.9474651181215142
0.9552644749295927
0.9620369635863721
0.9679571860225095
0.9729713575452794
0.9782527343993932
0.9842727441540151
0.9897876848708828
0.9933589672879706
0.9940705495724355
0.9925113067078375
0.9904997564361775
0.9887321438510659
0.9870350899722423
0.9837627721637899
0.9789831509001348
0.9739489856958127
0.9714373452086604
0.9721783677870371
0.9759958111601781
0.9810443248827029
0.9875816329891273
0.9961777925017715
1.009026856219378
1.0263505106668678
1.0482839766766827
1.0729979249422135
1.0988372915080051
1.1251260685089175
1.152687342008686
1.1816663805971286
1.2121344557721545
1.243309560706449
1.2740190910198774
1.3045748153570995
1.333844397510321
1.36029273137538
1.381352467812269
1.3951829026877742
1.402392626078579
1.4071394783435847
1.4139877924138813
1.424358516098889
1.4375682606381004
1.4498203590952956
1.4583643280117777
1.462047697299417
1.4635176470005422
1.4629599895595624
1.4618195466004644
1.4579762711108057
1.4530985466604855
1.447369136230232
1.443867583738382
1.4425743868396963
1.4440546330855795
1.4457320096185824
1.4468921227938054
1.4471911043368884
1.4487033822867141
1.4518128532342611
1.4556894699491272
1.457438742204114
1.457075992431475
1.455045460525837
1.4540862204704188
1.4552475249838017
1.4568973629355981
1.4574196247138953
1.4550488061874387
1.4518050014344968
1.4499524718068435
1.4502240004940907
1.4522847589898689
1.453303464387732
1.452337089198529
1.4503204845512736
1.4497017453860295
1.4515095099456206
1.4545663586567228
1.4565053892456141
1.4570369614527603
1.45623120335516
1.456970802062972
1.4597778966242276
1.4634783698034652
1.4652192473823298
1.4639621016473314
1.4603000057893611
1.4565993721224733
1.4532185167711305
1.4496600826022616
1.4433577660181678
1.4336039428963012
1.4219635829188548
1.4107039479043066
1.4006986613342334
1.3908570489225458
1.3789481609323928
1.364716480951532
1.3491170187835082
1.3342696611930593
1.3215944998723712
1.3105079556514347
1.2984567669228335
1.2849471051029808
1.2704345727509396
1.2579489380133722
1.2475068333583268
1.238342896240605
1.228050996888836
1.2160504652029427
1.2026137909054144
1.1899089107035021
1.1782051603774664
1.1662372730705928
1.1517213347610775
1.1343906181402228
1.1145189603902974
1.0945210269715002
1.075697349811405
1.0581650134305085
1.0400480695614125
1.0215637932165254
1.0036305881715835
0.9880867278081327
0.975780621751447
0.9658342722589741
0.9563641198405305
0.9466694056305824
0.9371035634739637
0.9295556919049249
0.9245524681881923
0.9212637693945345
0.9177469177742222
0.9135029217488315
0.909156187964473
0.9060116737693409
0.904370561771409
0.9036906317521523
0.9026375794414343
0.9006351638572757
0.8983084496843686
0.89713972657678
0.8977595782125655
0.8991763740436423
0.9005426204604734
0.9007633349342735
0.9007929239023221
0.9019068790737872
0.904911769810358
0.9091253826483413
0.9131630910021462
0.9159832872479218
0.9184176083342261
0.9212632196969698
0.9256852388519266
0.9303944961418115
0.9342110022145147
0.9354017136636297
0.9350120335893973
0.9340656197372981
0.9328008603608362
0.9306453736963207
0.925869081347054
0.9178606135902305
0.9078594465327181
0.8974583001817865
0.886949802120221
0.876387170672445
0.8656062254895092
0.8551497718617658
0.8449921729983714
0.8358038711489639
0.8267012766709566
0.8185858227369933
0.8093986127936876
0.7992366669671183
0.788228476742883
0.7778180342041822
0.7684622339110324
0.7594644240544901
0.7496771936476869
0.7395492801542025
0.7286458165535442
0.71873240339142
0.7092250932338416
0.7004792939759275
0.691332132595163
0.6815995195771885
0.6717913533166477
0.6623078354517334
0.6532867299211355
0.6445674471830659
0.6354385786331869
0.6267018924448466
0.6173309459349385
0.6092377312218384
0.6010861663275088
0.593940223509367
0.5865744944008708
0.5789010437057485
0.571251136065493
0.5637885612655393
0.5578912523500473
0.5524048987319263
0.5469556674118417
