0.4712350550856719
0.4705297608179131
0.4700470853769535
0.469234614318719
0.46872630466637577
0.4687189055412271
0.46971778738752795
0.47015142023471634
0.47109446581671643
0.47135836846934687
0.47337655853416083
0.4750170764836669
0.47899949587926344
0.4818397190061703
0.4864393012045595
0.48888879212138175
0.493102546199904
0.49614461600357573
0.5006466460586452
0.5030201801705199
0.5054503018063915
0.505986442964935
0.5074578440132586
0.5082933462989465
0.510112084913822
0.5101009338411476
0.5098409693604924
0.5077440373686436
0.5067365538432766
0.5052836045812694
0.5054591767863948
0.5043147855992891
0.5038816612893293
0.5022951863208444
0.5026804278942416
0.5033396864538123
0.5058452758205073
0.5074620269659832
0.5095377476393934
0.5106309046762725
0.5136138323083713
0.5171455890364184
0.5226274642527101
0.5271605647552936
0.5322985664884914
0.5364660337637583
0.5420712744799633
0.5475074778050399
0.5541547464331572
0.5598650391679386
0.5657085366424048
0.5707026123540622
0.5771810113674428
0.5842884743139732
0.5927340740823801
0.5999523908365182
0.6063849180369857
0.6110430431394221
0.616615053642492
0.622658395018565
0.630822055482861
0.6391538893917368
0.6484269929866772
0.657819944909329
0.669355086494981
0.6819519212047379
0.6961781281620005
0.7085437081324637
0.7190497461617428
0.7265162125836208
0.7337072933567105
0.7402327931900087
0.746957211521596
0.7521941542683789
0.7570277808282463
0.761110624118704
0.7665002993776767
0.7720619153703049
0.7775780044472397
0.7800735752506199
0.780222841278416
0.7779930464136984
0.7763591060572033
0.7753799620627595
0.7755890219279192
0.7745702201927296
0.7720991094147762
0.7673778425633846
0.7618385882078056
0.7545856355459574
0.7454908962100391
0.7329195180760342
0.7181447743376821
0.7021902517551782
0.6875231778137448
0.6746649904660922
0.6637439095615839
0.6527871701621493
0.6421794833584331
0.6313343299453401
0.6222096903124591
0.6141500598376806
0.6075007407673596
0.6003146119168942
0.5931632858333405
0.5856113630264829
0.5798244977608589
0.575355732430798
0.5725195666559599
0.5692223365147678
0.5656218826223127
0.5613302693784695
0.558097276032747
0.5555796215661332
0.5542393301514088
0.5522360377493245
0.5500556955987301
0.5470029487252536
0.5449826866764005
0.5436476948168213
0.5430912768485784
0.5416096063517637
0.5396218992345942
0.5368907446369666
0.5352754453182647
0.5343929109255986
0.5346432488106541
0.5342550075143861
0.5333362914484111
0.5318478441129025
0.5311165242690531
0.5314128031825388
0.5325078851475717
0.5329302387594177
0.5325590399690611
0.531589031326102
0.5317528925830187
0.5327665820298273
0.5345626753490282
0.535519422942913
0.5356456107480845
0.5349889559090528
0.5350386305959358
0.5359178457477609
0.537357706285825
0.5379048833929855
0.5374692156960784
0.5367829632366071
0.5369606037223921
0.5384722841686027
0.540502674552578
0.542137591188548
0.5427865298517537
0.5432118659632578
0.5443248793078768
0.546955279460231
0.5501215016262925
0.553160239646048
0.5553620461533457
0.5579843264681461
0.5619084043322018
0.5681822460193771
0.576066899799063
0.5849956581257082
0.5943642201737166
0.6051382521832118
0.6186827304992404
0.6350647782657165
0.6543723655409319
0.6745105620447854
0.6952373009067708
0.7164298782250385
0.7396575489702393
0.7643592588613767
0.7888632134263576
0.8089283364419725
0.8210083638220982
0.8257961362447006
0.8277259627447255
0.8305406211165417
0.8352275563891831
0.8396033178889268
0.8428211716201485
0.8452539602954104
0.849348341915338
0.8550760984507737
0.8619235067382526
0.8673405130538497
0.8709007761427342
0.8722528289241308
0.8722959735040708
0.8718630185133898
0.8703705044778461
0.8682675958830882
0.8649543901210254
0.8628242255411521
0.8631521696940023
0.8676821768244241
0.8747461457455764
0.8829186879467367
0.8901398635045783
0.8972968097559785
0.904433985689308
0.9116252018161745
0.916834013464079
0.9190181752985507
0.9166692067812495
0.9111599725129306
0.9033854236801901
0.8949630433966764
0.8852666663474191
0.8739608739582593
0.8609369773037536
0.8478255553385036
0.8361848747292088
0.8270940657621165
0.8192630461688604
0.8117824213199574
0.803782969419909
0.7964069682751311
0.7904070546225949
0.7869738223426832
0.7852203080313318
0.7839949880189493
0.7826293478887192
0.7821331953487662
0.7831586838111286
0.7865489361459383
0.7906797804191629
0.7947968395090841
0.7975999430901882
0.8007326009703931
0.805341783621843
0.8125729487025027
0.8207885294922721
0.829594089400208
0.8376618449832018
0.8464426395453735
0.8564339125350623
0.868481117806568
0.8815905662608257
0.8941872863152682
0.9047427254606336
0.9139352890873964
0.9219733072872583
0.929672550554243
0.9352439541289459
0.9383573823739534
0.9374075360835109
0.9351839379576661
0.932858154106687
0.9330017383755075
0.9338364749863727
0.9345407424630816
0.9332081893295531
0.9308979261723994
0.9275668491726938
0.9238450489642683
0.9175424262205708
0.9081120410670389
0.8943718213117623
0.8791805086092107
0.8634838075440417
0.8498925230773124
0.8367780649350796
0.8243163394235351
0.8116125242965156
0.800390002543426
0.7916627846465033
0.7863918979889704
0.7833361796233221
0.7816397234267131
0.7803793908696903
0.7802202231887393
0.7822705099859928
0.7868582422290679
0.7937687460816025
0.8011011699331241
0.8082702037732841
0.81463756947556
0.8208999714624945
0.8272779137547012
0.8331184399985231
0.8374062692157014
0.8395789779679833
0.8409531121879267
0.8435270458875146
0.8485129710464132
0.8552621241779713
0.86188638234563
0.8671554895132265
0.8724794263220234
0.8791558244666621
0.8878940279364886
0.8974502759104891
0.9060257140154435
0.9128552054487304
0.9178144483975571
0.9233939332287893
0.9299851153795786
0.9384262286037574
0.9457217912785696
0.9514394281651396
0.9560973085372073
0.9617799932337338
0.9688089024498542
0.9766094892738635
0.9833731836708652
0.9892364522749326
0.9941953350615446
0.9994769286799088
1.005483980509248
1.011079970455839
1.014612404038792
1.0153065541672328
1.0136406281321824
1.0116514622303587
1.0099086935085524
1.0082107533303222
1.0048927683705553
1.0000295266127184
0.9949715438223558
0.9924206904811215
0.9931834353591712
0.9969912363561377
1.0019600030757942
1.0083787851195463
1.0168629853842077
1.0295901775300567
1.0467393922398156
1.0684405337469696
1.0928058014129536
1.1182913578488327
1.144010224561937
1.1709888905872659
1.1992069885427372
1.2288620192951623
1.2591704789826634
1.288762242231343
1.3180436003325515
1.345811676590848
1.3709158549638298
1.3910812009953888
1.4042646617658276
1.410965208113312
1.4150445771654987
1.4213120066625953
1.4311578023867644
1.4439661968133863
1.4557558993807747
1.4639058143452957
1.4672074966507274
1.4686907509495377
1.4681949673439707
1.4674324716193121
1.4637336125137614
1.4590828511168128
1.4533655531851803
1.4499867633772554
1.4488256254410181
1.4504250189054206
1.4521450036274035
1.4532774450054182
1.453446589888065
1.4548583819228962
1.4576792826390448
1.4615066846453444
1.4633209432364953
1.4629401714926782
1.4609676815013646
1.4598119987297127
1.461142465933884
1.4627278917633355
1.463303767216996
1.4608660788053518
1.4576892293754768
1.4556879309839725
1.4560312304455139
1.4579373205685737
1.458999044271657
1.4579213241481712
1.4560860583119384
1.4554802478075577
1.4573288126484367
1.4603698707492447
1.4623849382257437
1.4628743602412122
1.461908895555914
1.4627003348067857
1.4654520447751596
1.4691761415608715
1.470751442362556
1.4695222350979156
1.4657724004748625
1.46200170424876
1.4585773648831672
1.455223550281631
1.4491034913102765
1.439918093011236
1.4288446096623437
1.4183264388622145
1.408796279542911
1.399520410507393
1.388269793744294
1.3747765956003697
1.359948686668605
1.345949515610481
1.3340295840008454
1.3235361959341514
1.3119193050061595
1.2989041477109937
1.2850137733346263
1.2730835506313236
1.2631889842705486
1.2544415713891877
1.2447697945802711
1.2332013393108099
1.2201817914881838
1.2077027049157614
1.1964178816156998
1.1848947681090114
1.1708780839958222
1.1538364108833234
1.134326488114766
1.1146603080842952
1.0961673464008228
1.0789645245550357
1.0611021880492901
1.042801326694154
1.0249293408472546
1.0094823346401387
0.9972891538319121
0.9874699806195393
0.9779791988676341
0.9683244568532484
0.9586984973550126
0.9511566072145932
0.9461146893430361
0.9428466588808017
0.939396923450992
0.9351464479705864
0.9307326035841436
0.9274837621017136
0.9258631425115523
0.9252173722373066
0.9241762191593595
0.9221285749739934
0.9198244521532662
0.9186314735095045
0.9192900941952947
0.920710147555663
0.92213323671462
0.9222969863921723
0.9222727683170528
0.9233338892212403
0.9263389051288083
0.9305937159236329
0.9346294452505022
0.9374614023087408
0.9397812661833956
0.9426362169000619
0.947019063377108
0.9517616117981593
0.9554644060337919
0.956643579354775
0.9561846893827026
0.9552424554884282
0.9539353414827952
0.951729299446512
0.9469137705540965
0.9387722574451405
0.9286402254313028
0.9180539906833625
0.9073451011651127
0.8966895495524632
0.8858078373546954
0.8752264092128338
0.8648721916733897
0.8554392483138817
0.8463547256777193
0.8380336082187337
0.8286187039437709
0.8180653271840308
0.8068052623696483
0.7964349060577538
0.786779269659901
0.7775139650772398
0.7675407637726255
0.7573276516512555
0.746489840028621
0.7363009528693965
0.7268024903021288
0.7177995711536107
0.7086679950967054
0.6987689168856847
0.6889211609047036
0.679170288121561
0.6702970232023817
0.6618461049335976
0.6525606579566591
0.6436994999752964
0.6337014108942373
0.6252827016254887
0.6166135143283171
0.6096490842852968
0.6022808387465011
0.5950915478126485
0.5875159935571392
0.5803388796765472
0.5740004174778777
0.568418633674861
0.5631565025006824
