0.45882031836469056
0.4581129494111049
0.4576015437823319
0.4568309704353347
0.4563853876557975
0.45636915440402104
0.45731337034757535
0.45774125583649894
0.4586705020894407
0.4589021305379546
0.4608638979882733
0.46254484024384374
0.46647237123964386
0.46933770644982825
0.4738774951830971
0.47640787591460204
0.4805918999934437
0.48364897503106635
0.48810992695018834
0.4904667999585695
0.4929269919366002
0.49345060637213906
0.4949395211941204
0.4957281859798145
0.49757289431549095
0.49753296828718074
0.4973241157546772
0.49521839539578166
0.4942673924568325
0.49282664700720263
0.4930591355420071
0.49191506833358833
0.4914880584764415
0.48989766939381774
0.49035227820434174
0.4910095433208472
0.49350734432536075
0.49511490692446175
0.49720823574490863
0.4982768402760565
0.5011994825281135
0.5046900757941888
0.5101178317520009
0.5146051444256231
0.5196925310321017
0.5238366172567669
0.5294000164289491
0.5347936476378886
0.541396134625844
0.5470344988622121
0.552826420154745
0.557769733980436
0.5641930644176747
0.5712675817718992
0.5796566688734297
0.5868497202851153
0.5932358659242086
0.597902516418013
0.6034928427835504
0.6095051479692842
0.6176571667756476
0.6259059838153447
0.6351686609107944
0.6445089099321054
0.6560176012527692
0.6685714996554882
0.6827230999565533
0.6950683091485779
0.7055185835523096
0.713008834379505
0.720189668009113
0.7266929368812723
0.7333759349700549
0.7385662786111291
0.7433728833867008
0.7474482740416564
0.752865091084994
0.7584426374562138
0.7638903976329274
0.7663643726027823
0.7664814553955193
0.7642887846264095
0.7626378076234066
0.7616588173134847
0.7619072087541776
0.7608776835790848
0.7584617997904795
0.7536677804450018
0.7481970971898092
0.740900663814831
0.7318274497729055
0.7192185863245406
0.7045130900274258
0.6886270776307497
0.6740953033681111
0.6612565565205405
0.650354305585851
0.6393649507886475
0.6288566385530195
0.618117442856694
0.6090752469896343
0.601019801085311
0.5943825189040922
0.5872306730476694
0.5801162220780596
0.5726514286578054
0.5669110509421693
0.5624950212589125
0.5596673204956878
0.5564161453469428
0.5528414935801182
0.5486096234218588
0.5453806038612392
0.5429109913241744
0.5415671941284941
0.5395883117301568
0.5374324457553049
0.5344285729528517
0.5324545471798264
0.5310974856575632
0.5305438756383625
0.5290874623029392
0.5271416775637766
0.5244361956466134
0.5227921268616285
0.5219142737666663
0.5221632558648304
0.5218008483456608
0.5209250333073051
0.519452843907513
0.5187197795465479
0.518996411518659
0.5200529374786725
0.5204879597617476
0.5200975511403304
0.5191674180666654
0.5192844219504219
0.5203098809122738
0.5220553986508524
0.523042445424974
0.5231192176469363
0.522469965153735
0.5224779196293555
0.5234261856707741
0.5248245406857421
0.5253819170147296
0.5248446901058501
0.5241976272563863
0.5243180962414445
0.5258721587993528
0.5278408066205145
0.5295321645662027
0.530108450643779
0.5305761744961287
0.5316071495889783
0.5342948616489297
0.5373924846416793
0.5404958061302593
0.5426429040088441
0.54533803270756
0.5492005751760031
0.5555021068376721
0.5633199300019314
0.5722203984558495
0.5815362613865359
0.5922763621942149
0.6058005411092684
0.6221044233958445
0.6412845149235693
0.6613244354204049
0.6819607459801657
0.7031141406461197
0.7263185698460854
0.7510142777229193
0.7754857106453985
0.7955034138466742
0.807610235428822
0.8124295366508292
0.814379436926909
0.8171123185118301
0.8217555934591028
0.8260787499725116
0.829346174627342
0.831823851636674
0.8359541237627589
0.8416746901989371
0.8485533853985263
0.8540051178706838
0.8575988719079353
0.8589091201582753
0.8589690858366773
0.8585092932325737
0.857043797957196
0.8548842258708189
0.851549654257658
0.8493793292991798
0.8497194709760603
0.8542778197337703
0.8613812026582628
0.869564356453175
0.8768234190670492
0.8840261608206144
0.8912265750071365
0.8984575261180516
0.9036681185330544
0.9058041772870024
0.9034634237337582
0.8979474015249563
0.8901414011745595
0.8815658070327054
0.8717471020396577
0.8603782927814084
0.8473731298560196
0.8342076348069853
0.8225420295713838
0.8133707016721374
0.8055345676520393
0.7980451481039043
0.7901107681135667
0.7827753370857544
0.7768001189347362
0.7733838516013021
0.7716335320345368
0.7704246954294846
0.7690583752712692
0.7685832573035526
0.7696277093031062
0.7729742917248031
0.7770845491343059
0.781175697865811
0.7840328054391685
0.7871738194749883
0.7917826580457517
0.7990148866629766
0.8072408355994413
0.816072230305977
0.824153029698895
0.8329203370206176
0.84294145808488
0.854968225000951
0.868116269650113
0.8806983555921086
0.8913288179488604
0.9005709340274973
0.9086865629557784
0.9163625599894651
0.9219440215575063
0.9250391445484858
0.9241082861375345
0.9218854217931034
0.9195361144047469
0.9196797069351973
0.9205176620606977
0.9212490889551577
0.9199113254448159
0.9176251782797723
0.9142233306146732
0.910467159958521
0.9040957821933424
0.8946702030963755
0.880956610328533
0.8657152793342056
0.8499894169637651
0.836288358982295
0.8231614349613023
0.8106638147673102
0.798014087210522
0.7868773048241658
0.7782311528596464
0.7729776548463975
0.769926778973413
0.7682269978080916
0.7670184317733325
0.7668636356500405
0.7689322764581165
0.7735315654062821
0.78042202380148
0.7877945917457377
0.7949833491107865
0.8013981121065558
0.8076240660465482
0.8140133093193754
0.8198693979424742
0.824199212647452
0.8263724208964754
0.8277887268998396
0.8304038792309391
0.8353605808020317
0.8421117382906882
0.8487534995913966
0.8541289829449469
0.8594220104401722
0.8661033448491678
0.8747877210720618
0.8843648581604141
0.8929550863754249
0.899814395558452
0.9048230285859807
0.9104243012968004
0.9170133634776689
0.9254493057450084
0.9327356693208771
0.9385133341507608
0.9431916050859831
0.9489123835327473
0.9558949966780959
0.9637436143973117
0.9705774727716024
0.9765866707608142
0.9815295993043005
0.9867956629455802
0.9927782673759629
0.998436980142797
1.0020245811353041
1.0027891543108431
1.001170300824289
0.9992344662435135
0.9974720140680124
0.9958410890193111
0.9924836183215854
0.987708806875134
0.9826553279968206
0.980207861413234
0.981004295175342
0.9848921492309423
0.9899489977027287
0.9964768187687303
1.0051340014962553
1.018053150790884
1.0354018102000666
1.0573310328098835
1.0820300904233446
1.1078400172214402
1.1339828448760536
1.1613111286832716
1.1900649590968992
1.2201936332302579
1.2509838940409541
1.2811532699424106
1.3110677585449078
1.3395906799367692
1.3651812668746668
1.3857404770281732
1.3991426613404299
1.4061684004233044
1.4105660519034355
1.4171618351936794
1.4272509416982655
1.4401553208572606
1.4520420080208911
1.4603630737103312
1.4637952624268067
1.4653030010087171
1.4645284116897404
1.4635801946418625
1.4598153427647604
1.4552777523223952
1.4494696886468266
1.446068500535992
1.4449552819881888
1.4466333295728537
1.4482236813427793
1.4492244561639178
1.4493753318712836
1.4508831978583572
1.4537988674499172
1.457585247888167
1.4593471738254935
1.4589299627589063
1.4571111834625874
1.456013981075748
1.457241355279294
1.4588032467225023
1.4594994482544883
1.4572766049781947
1.454137835118057
1.4521940412691787
1.452348404026351
1.4541975094833424
1.455038736768261
1.4540408283740796
1.451956645020808
1.4514108016341516
1.4532508012189467
1.456495444544422
1.4584790093144386
1.4590215542607667
1.4580436726276176
1.4587689906104198
1.4615964273196091
1.4654296836811913
1.4670120522668768
1.4656837467019168
1.4619671341001736
1.4583683708713404
1.4551162828209756
1.4517476566082785
1.4457249574809625
1.4362324078040936
1.425016294058752
1.4142226918596899
1.4045650763736786
1.3950373229856363
1.3835656950068758
1.3698153410177671
1.354726785581362
1.3402278671103969
1.3280222005398288
1.3171394238401606
1.3054020701465503
1.2919764457057852
1.2778432619994662
1.2654946446985196
1.2553485381898508
1.24624536312213
1.236211823759622
1.2244530696983187
1.211192386578744
1.1985932363024447
1.1869278240024936
1.17509716667398
1.1607232420527478
1.1435251855306074
1.1237170789250484
1.1037374263081616
1.0849483703279785
1.0674780721787145
1.0493592243398406
1.030833533368852
1.0128341767907705
0.9972169434106222
0.9848555956210739
0.9747947286619106
0.9653246635137339
0.9555889014741841
0.9459608739736333
0.9383194703587322
0.9332125108768416
0.9298981657735329
0.9263570449636692
0.9220624052531697
0.9176765394529204
0.9144466296590548
0.9128239980862065
0.9121270370571108
0.9110284441066718
0.9090426490557341
0.9067255080657599
0.9055919528345873
0.9062102432518012
0.9076423216646394
0.9090344205475669
0.909184710390494
0.9092106058574044
0.9103279930366487
0.9133621119836903
0.9175960572577746
0.9216498040198201
0.9245575289316076
0.9270066320839152
0.9299141791577271
0.9342843123806414
0.939049499468774
0.9428471501430513
0.944047832363258
0.943617021097262
0.9426347045562312
0.9413946856735391
0.9391095950635305
0.9343487662063851
0.9261776634915025
0.9161021541395847
0.905505618349543
0.8948228144003123
0.8841971761153302
0.8733200984323053
0.8627637166409647
0.852589908999819
0.8432767938340471
0.8342565908482422
0.8257531130470551
0.8162596026224666
0.8057128217629899
0.7946566201529185
0.7842338119650835
0.774647855192374
0.7653425571434194
0.75544526121433
0.7452407897087888
0.7342658707324585
0.7242368851413999
0.7146225626976883
0.7056395776223299
0.6965487059657638
0.6866778804518027
0.6769555290180862
0.6670327882029473
0.6581926108347805
0.6495055807466361
0.6400659183070849
0.6312129416918626
0.6218644212909091
0.6136762227110745
0.6051673418540686
0.5976893179942706
0.5903040164270941
0.5827995093815312
0.5750157765524259
0.5678833217237041
0.5618258122440298
0.5565624779995475
0.5512004779164597
