0.4555319465100556
0.45485543952217183
0.45431208792091593
0.45353582564035705
0.45307341144495633
0.45306722499774044
0.45402193301768073
0.4544148938750413
0.45537710801465403
0.45561537940844565
0.45764318292983486
0.45930977420898966
0.4632923236833403
0.46609317013888557
0.4706874701336011
0.47313902709225153
0.4773599076671805
0.4803469600967961
0.4848349501422739
0.4871501900840571
0.48959075079957226
0.49009799215058314
0.4916202110011528
0.49241781868254375
0.49425969730969904
0.49420165553191053
0.49402659108666225
0.49195204805271703
0.4910316254907046
0.48959032734875874
0.48978605260649405
0.4886306675896888
0.48821718904851574
0.48670247902063113
0.48714431761000787
0.4877844127920621
0.49025026284675915
0.4918370173704857
0.49390660304141376
0.49495517816054285
0.49789204090838923
0.5014107210712376
0.5068057404555952
0.5112533849276076
0.5162591592858863
0.5203616378928476
0.5258901848636405
0.5312344812467242
0.5377710682128828
0.5433685188268093
0.5491562339094352
0.554067870809104
0.5604562474542413
0.5674036570911729
0.5757493383228011
0.5828394353762643
0.5892144841730518
0.5937811722939462
0.5993144650827851
0.6052281266122207
0.6132872306864163
0.6214307359597757
0.6305755813451895
0.639809311504444
0.6512203732547455
0.6636179360285004
0.6776182102334801
0.6897596145171393
0.7001157015004679
0.707504651630358
0.714621179055321
0.7210175784411951
0.7276475855716097
0.7327332289463233
0.7375806861843752
0.7415751204651247
0.7469585752684781
0.7524193036029692
0.7578180559418607
0.7602583662514744
0.7604019980096641
0.7582550701095698
0.756662781178406
0.7556635424116079
0.755883678283022
0.7548900083993912
0.7525327253710488
0.7478329175106481
0.7423858740511626
0.7351331735344966
0.7261817777263886
0.7137458062029471
0.6992567704825858
0.683511606310207
0.669083751728354
0.6563479507448874
0.6456344509107829
0.6348192692971315
0.6244450952140111
0.6137405765269066
0.6048036603153972
0.5968521741301238
0.5903612227281835
0.583278331160792
0.5762455272055108
0.5687991289831262
0.5631379118414626
0.5587627482147673
0.5560089573782725
0.5527539632958951
0.549239287456901
0.545006913814324
0.5418553638832615
0.5393801457086781
0.5380899278662558
0.5361051765552128
0.5339730013779421
0.5309647603030917
0.5290002933545391
0.5276701619304486
0.527122162839945
0.5256714877883939
0.5237387357944281
0.5210781845357452
0.519490522326488
0.5186138622529107
0.5188321480790064
0.5184788321183534
0.5175825930498611
0.5161529234823845
0.5153568147036393
0.5156544972144453
0.5166940271432665
0.5171543921369979
0.5167655576933093
0.5158451921824179
0.515959133000005
0.5169820158196827
0.5187079208291123
0.5197134341682542
0.5197669340325735
0.5191261076100929
0.5190991658978144
0.5200485326803657
0.5214343342167574
0.5220175809615318
0.5214681277034604
0.5208241838255633
0.5208878192280191
0.5224492373864472
0.5243763129610021
0.5260930660828324
0.5266601752957111
0.5271486284940625
0.5281493984240156
0.5308209746726331
0.5338634250666472
0.5369574472313972
0.5390802020113534
0.541750169984131
0.5455913325761826
0.5518613857255253
0.5596329516671369
0.56848981458485
0.5777242747489102
0.588364561723045
0.6017265268361207
0.617869615074003
0.6368746989356202
0.6566625402521876
0.6770427235206203
0.6979197624907872
0.7208311903104038
0.7452157514213406
0.7693911378222497
0.7892401228320078
0.8011752076742483
0.8059007334881088
0.8077804486927127
0.8105496640534353
0.8151933755882882
0.819513122825482
0.8227162120640327
0.8251690736325517
0.8292324141909478
0.8348773009224432
0.8416608937398593
0.8470507108390787
0.8505771763930705
0.851883530385195
0.851922176346391
0.851478190435718
0.8500062627873877
0.847882768678022
0.8446378268287177
0.8425025539945776
0.8428432354762745
0.8473072718421245
0.8543502173752299
0.86244016129015
0.8696579676595004
0.8767912535661498
0.8839419828626578
0.8910723186360215
0.8962385565462393
0.8983913034216439
0.8960761410447113
0.890609537765987
0.8828231238123353
0.8743620527671842
0.8646623610282341
0.8534147133545474
0.8405210344135833
0.8275026170838264
0.8160064007734311
0.8069835757379227
0.7992226319795317
0.7917910107120901
0.7839020222023273
0.7766677229972982
0.7707766014239732
0.7674050527443372
0.765665184669659
0.7644824245347933
0.7631483818830367
0.762662846600642
0.7636504168758855
0.7669791135041677
0.7710414586950262
0.7751128480520046
0.7779128070397009
0.7810271948044168
0.7855730943450064
0.7927036105116635
0.8008406732115076
0.8095530905512431
0.8175255108446388
0.8261863953341791
0.8361174284420901
0.8480690140723437
0.861071648043181
0.8735260112520243
0.8840087272556841
0.8932368633783163
0.9012701392065405
0.9089516085208332
0.9144009493147829
0.9174526639581193
0.916511666382608
0.9143431131409285
0.9120253055283954
0.91211234802813
0.9129250900203811
0.9136311244875864
0.9123450331295248
0.9100745187802689
0.9067782228929775
0.9030615343175943
0.8967839316752142
0.8873751841107289
0.873770788847108
0.8586798516249496
0.8431448338447943
0.8296047272115217
0.8166215115104175
0.8042849665306196
0.7917787599830096
0.780729283730644
0.7721352713154072
0.7669141364294089
0.7638961120180854
0.7622284834672424
0.7610527957042296
0.7609233268544766
0.7629878993377094
0.7675488573175658
0.7743454925693893
0.7816353698416777
0.7887219279547394
0.7950961738231517
0.8012708468432611
0.8076024364097489
0.8133351899118428
0.8175789104088008
0.8197337408459466
0.8211652525307026
0.8237824500653536
0.8286665298756354
0.8353625677740737
0.8419087977065882
0.8472323243362477
0.8524946681505011
0.8591528090030246
0.8677732890109928
0.8772595583266724
0.8857704655308392
0.8926213251322941
0.8976254820715078
0.9032334361607528
0.9097823529320682
0.918145005762571
0.9253584581551897
0.931088672299005
0.9357613532569174
0.9413956353043732
0.9483328798362828
0.9560587365815667
0.9628300145461709
0.9687653906952719
0.9737618552119345
0.9790453603390163
0.9850199791018384
0.9906411812263175
0.9941846365867856
0.9948801060758934
0.9932846788502944
0.9914102963252817
0.9897173841460707
0.9880659964070706
0.9847074957524156
0.9799674744885193
0.9749188930043822
0.97248583844838
0.9731979316731325
0.9770344725275837
0.9820866827089589
0.9886480200434293
0.9972540462888664
1.010097719033683
1.0274101995234055
1.0493077240272126
1.0738866115093755
1.0997827046210595
1.1260462186949538
1.1536169453929161
1.1824988341036518
1.2129276074699111
1.244100031083211
1.2748522710882764
1.3053737546704764
1.3347731331138524
1.3610127664246376
1.3822925412106934
1.3961060885149996
1.403331827985003
1.407885599275997
1.414544303019606
1.4249739961598555
1.4381887771246897
1.4505388676625743
1.4591501983796868
1.4627844384894109
1.4643269501281877
1.4637726147525674
1.4627707525876992
1.458869206173154
1.4539166863007587
1.4481144256267757
1.4445643251758238
1.4433129977793757
1.4447662742434604
1.44645576885435
1.447642861130161
1.4479729046611112
1.4494568906101295
1.4524662108833668
1.456304149147207
1.458287223119492
1.457899866179933
1.4561719849139059
1.4549900326892755
1.456277745072344
1.457738636326329
1.4584106686091776
1.4560140852488082
1.4527525443991245
1.4508349301848944
1.451072618578103
1.4529372005692909
1.4539386125351812
1.4528749954462927
1.4509840902094473
1.4502935817944103
1.4522371227024735
1.4553722369895181
1.4575270362267767
1.4580524445539453
1.4573298155815837
1.4579891105035994
1.4608721869089325
1.4644768739417169
1.4661368552718061
1.4648155290743496
1.4611648624160074
1.457497962549152
1.4540369049660726
1.4505052302252797
1.4441198326729838
1.4344921194921931
1.4227983475659398
1.4116465065173676
1.4015729090483908
1.391728947863738
1.379711330085741
1.365509996565407
1.3499648884200757
1.3352162879968474
1.3225857352373478
1.3113144653622193
1.299163074919137
1.2855331446540714
1.2711388425529992
1.2587393106577769
1.248222929687742
1.2389667009444498
1.228671568827646
1.2167917337081875
1.2034190891655194
1.1907041367467883
1.1789010512582436
1.1669684974117323
1.1523182247355692
1.135106210323111
1.1152103432850267
1.0953143157281244
1.0764244453564342
1.0588900461229467
1.0408196597309254
1.0223645318335262
1.004430161695371
0.9888779053532153
0.9766096305346172
0.9666794937896838
0.9572399955633463
0.9475289444806766
0.9379510833186675
0.9303587995416245
0.9253340496362145
0.9220734646967687
0.9186095150915476
0.9143528412027538
0.9099772559340528
0.9067489615422948
0.9051996037387713
0.9045218097638262
0.9035166621350544
0.9014974739435959
0.8992422364178153
0.8980466024905204
0.8986594586724309
0.900047643575694
0.9014340795164142
0.9016032681424735
0.9016451389629102
0.9027249593486844
0.9057207952656336
0.9099229721568801
0.913926177938748
0.9167425147580611
0.9191070714924221
0.9220235151337256
0.9264473099361359
0.9311693088850889
0.934882777935385
0.9359888808290009
0.9356232376248733
0.9346645284232719
0.9334828808290958
0.9310998301634644
0.9263725790007988
0.9182610391515268
0.9083152217363955
0.897834071606946
0.8872489395226116
0.8767184786455654
0.8659957996588277
0.8554948805580342
0.8453615392250564
0.8360438322480261
0.8272270761112316
0.818817283178368
0.8096532600766609
0.7993747240702118
0.7885013843021246
0.7780841467011984
0.7683621119057243
0.7592554384990778
0.7493617612504679
0.7391754262288195
0.7284243972437252
0.7184452429523122
0.7090593229918241
0.7003295961302768
0.6913773649549975
0.6817057467886475
0.671764153550466
0.6621696729691339
0.6531894376897195
0.6445404133915154
0.6351165611016953
0.6261807058163482
0.6170240427244771
0.6088568257627891
0.6007767978510563
0.5933249266395736
0.5859103392632231
0.5783164165527575
0.5707476490328275
0.5637022405207404
0.5579198524937461
0.5526715466440291
0.5473981891824027
