0.5487769531732757
0.5429385392093071
0.5789946872592704
0.5652866937513008
0.5725700010440758
0.5808958826226893
0.5811596150693693
0.5794888741107181
0.5820447009041919
0.5871275751448577
0.5968852271299211
0.5902254647228726
0.5916457232377905
0.5926852705895629
0.6000118978941639
0.5944596483528232
0.5928142017962282
0.5910299932381716
0.5948014836781881
0.5935656781898563
0.5914964629908089
0.5884965468487869
0.5921495835542503
0.5902240901078176
0.5890536433424375
0.589716237004757
0.5878205839178989
0.5894859492040563
0.5897206062756605
0.5869826576188643
0.589963186976037
0.5903208252841433
0.590723064884896
0.5914097977769165
0.5922192018105676
0.5930636463061858
0.597445737258839
0.5992309574474484
0.6023650961106904
0.6047326422933879
0.6092898788626224
0.6133860352177118
0.6186587040916884
0.6229241251049227
0.6271605903451521
0.6322244086483478
0.6353000511158787
0.6387327538106569
0.6401946334195446
0.6411642497470794
0.6416686684239256
0.644088356029993
0.6452568526655124
0.6469967382876068
0.6447552887931028
0.6460227651894638
0.6461470177291034
0.6458093293481564
0.6429625110365966
0.6419678330550265
0.6387022116691393
0.6398636124022501
0.6408403883582449
0.6419809178588401
0.6432678486466711
0.6445789465607223
0.64652841096907
0.6512805750557693
0.6568155208179989
0.6598964563886394
0.6631870760022868
0.6652064423876122
0.6697042179191374
0.6756945694340387
0.6820273313550098
0.6882464801253573
0.6959122401062982
0.7032999611654194
0.7152252182889025
0.7272133852367892
0.7373269438732459
0.7466514116867032
0.7565933965758398
0.7633315202296812
0.7754466015155145
0.7845369580305396
0.7921188462723766
0.7975853423865189
0.8062894660924851
0.8076328828890919
0.8053874999719103
0.8056891236286448
0.8029476152922053
0.8015555026405069
0.80018560263601
0.7986120273646786
0.79635596002895
0.7972476040443637
0.7990681488385214
0.7978184482945375
0.7938456620086157
0.7927141569088071
0.7940382304710524
0.7926813976957908
0.7987893525234473
0.7936182738299912
0.7976209994207321
0.8005221713261669
0.8003796227170127
0.795746108776775
0.7992247827325536
0.7956715838305403
0.7937256097769683
0.7872791097327867
0.7857848616852562
0.7800586374892491
0.7803279516995532
0.7769943270559503
0.774199666591239
0.7767895715071845
0.7804850342491998
0.7816517207831203
0.7884645202714893
0.7870272901119663
0.7882683667350443
0.791560379549264
0.7935933350695177
0.7899400353684043
0.7919992334812955
0.7941115121292956
0.7979967054082274
0.8017163702403856
0.8007477118107496
0.7997651244844673
0.8076465116939966
0.8091584065431189
0.8061662192893023
0.8091354529382027
0.8099688617432189
0.8145750568824001
0.8182854929565878
0.8175806319612536
0.8169103400748274
0.8170555591632198
0.8153615205814417
0.811402971447391
0.8116888459530444
0.8093161474269653
0.8097441685931085
0.8110069960344599
0.811773519961686
0.8119544625577283
0.8142578371457749
0.8166123956172431
0.8198848933604223
0.8281387283129207
0.8429797844135201
0.8680408763615279
0.8950515765762507
0.927050132829096
0.955982919984877
0.9938011182312128
1.018753353152083
1.035463731455181
1.0398181349614262
1.038061216428511
1.0252824916717511
1.0180803192747787
1.0065930924538702
0.9923319915954754
0.9799732260250948
0.9657243131055696
0.9524628007542196
0.9436902770536948
0.9299872397982034
0.9200883412311712
0.9179888153211283
0.9161368781927548
0.916857640135585
0.9218978594515852
0.9291936520008521
0.9411354581154966
0.9492622934608144
0.9584635953852452
0.9653731394197175
0.9783033816472102
0.9877150439576595
0.9943014012172753
1.0012164355858264
1.01084532739355
1.012564791908787
1.0176206466947515
1.0172653289502591
1.0155631154238538
1.0137841903360643
1.0089259190384636
1.0063133298759153
1.0040828155591608
1.001292243336697
0.9960493555827887
0.992869686804504
0.99029877312249
0.9886374317136646
0.9891207584896979
0.9896694143497407
0.9895758096843728
0.9955316372079429
1.0017367775117656
1.0076928825839715
1.0148003994226842
1.0147305867570262
1.0202076372024445
1.0244686098467881
1.0273407423929637
1.0338790582192914
1.0403884221888673
1.0443956618909862
1.0445139021903243
1.0428283037975228
1.0422260067032338
1.0395173698170135
1.0345196289733347
1.0311745330649353
1.0344379406362623
1.0437094535340572
1.0519632339947806
1.058919847676672
1.0679577615492863
1.0762682856992343
1.0819911783600837
1.084535074863236
1.081416588355628
1.0796770956256547
1.0786504466990645
1.071701460941888
1.0726510159772187
1.067908545238929
1.064583632043876
1.0633559216705113
1.0601520610895088
1.0628446506887235
1.0706088472522317
1.0713296818220097
1.0853561128650522
1.0952371672599033
1.109968581890407
1.1339596410365507
1.1449982701837875
1.1573021929496756
1.1703162776689726
1.168560660794065
1.172299709794537
1.1613531205572185
1.0458787233665392
1.130333768495014
1.0281253086071511
