0.47345259029894626
0.47280140621216893
0.472281730325028
0.471528328835284
0.47095953989348754
0.47097193470488036
0.4719472092984958
0.47236487355600987
0.4732574499331505
0.47348322363880346
0.4754614099202228
0.47718739326291276
0.48114317938006396
0.48405724592469945
0.48853649324005377
0.49103714212081323
0.49521054634562817
0.498330737468352
0.5028330024962431
0.5052017508815693
0.5076225174991811
0.5081471732424867
0.5096238219385755
0.5104446773796449
0.5122209362922109
0.5121933286960072
0.5119403153576562
0.5098473303909835
0.5088282554455383
0.5073642899340829
0.5075567250788803
0.506418154886353
0.505953448670993
0.5043842116013478
0.5047928764026325
0.5054775018482106
0.5079253162260273
0.5095256745073231
0.511592341722193
0.5127144670546977
0.5156756807971452
0.5192517406245565
0.5247124111947128
0.5292915220532741
0.5343752789329039
0.53858726428397
0.5441928777146334
0.5496887647014476
0.5563160220525725
0.5620096466959903
0.5678317253777242
0.5728422333539395
0.5793328345150668
0.5864733660877575
0.594927376856825
0.6021359735975921
0.6085434667418431
0.6132485423184165
0.61885531614756
0.6249548818973021
0.6331185260246027
0.641439623683171
0.6506794502934727
0.6600798962971638
0.6716220209336665
0.6842656079368298
0.6984375895503612
0.7108386929829636
0.7212763410260818
0.7288086318377991
0.7359774575953542
0.7425360717525914
0.7492454485900433
0.754477052948626
0.7593439009952122
0.763419483207689
0.7688813307647928
0.77442628266997
0.77989353033389
0.782375006853512
0.7825254186321186
0.7803688727785864
0.7787315772264265
0.7777763470252418
0.7780115425466244
0.7770311130066312
0.7745525088539835
0.7697129958428214
0.7641225378167861
0.7568364589695206
0.7477895432233285
0.735211620575003
0.720440934166925
0.7044798256229002
0.6898307871400554
0.676925773483829
0.6659913264361673
0.654983307332661
0.6443981829404469
0.6335545934064057
0.6244139270404978
0.616371688473677
0.6097411277813382
0.6025617993559796
0.5953413047451933
0.5877516415998453
0.5819589924825521
0.577498314782849
0.5746609390663708
0.5713434739952655
0.567754993669537
0.5634678509735865
0.5602311873740174
0.5577298838804184
0.5563930835182763
0.5543808972682565
0.5521770696935898
0.5490944472528889
0.5470740441410079
0.545728619646502
0.5451756633660814
0.5437065857223119
0.541723621592106
0.5390053102732991
0.5373750109523333
0.53648895130777
0.5367387210033695
0.5363647550992571
0.5354658808640835
0.5339876330555064
0.5332425779180472
0.5335233785665042
0.5345884504670514
0.5350182124306389
0.5346577344781442
0.5337025359957979
0.5338515989927616
0.5348643140803496
0.5366454790008306
0.5376178266407623
0.5377424208091552
0.5370933754835947
0.5371802389101867
0.5380611771057474
0.5395146784306515
0.5400091882437643
0.539549581121408
0.5388838211675593
0.539078499894786
0.5405832142793792
0.542588343062949
0.5442214922286578
0.544903429658662
0.5453069022125504
0.5464254301443817
0.5490291871208413
0.5521844736965754
0.5551863007583354
0.557408100683473
0.5600465939296527
0.5639986183602278
0.570264647131231
0.5781493654041806
0.58705869943873
0.5964181329778525
0.6071968696570106
0.6207547984183812
0.6371869685309847
0.6564913476641063
0.6766676493254717
0.6973818517321032
0.7186199756537288
0.7418529075779025
0.7666002890519467
0.7911028648196791
0.8112122415802264
0.8232920811442516
0.8280937271984554
0.8299955105820204
0.832786191612612
0.8374690544406251
0.8418613529913016
0.845093840233924
0.8475638528568633
0.8516555073739709
0.8573643457621536
0.8641978859845593
0.8696423820838688
0.8732154812587911
0.8745485230802565
0.8745948773510891
0.8741709670707496
0.8727047473795999
0.8706245215698895
0.8673503725272174
0.865209713882867
0.8654862080135269
0.8700156818115681
0.8771021346004195
0.8852900726415592
0.8924914478387939
0.8996492212049368
0.9067784108596596
0.9139415390800065
0.9191787073945261
0.9213372279314511
0.9190124444512403
0.9134567652119554
0.9056722316972886
0.897270630977588
0.8875952082809575
0.8763769948553024
0.8633299531636821
0.8501948045330907
0.8384884599105675
0.8293971130436281
0.8215619559302292
0.8140858833784347
0.8060548478135401
0.7987050615746498
0.7926892215797583
0.7893086668833253
0.7875042653478553
0.7863162711462913
0.7849332660105294
0.7844597961850326
0.7854686715443218
0.7888520845479701
0.7929935327944145
0.7971246481645862
0.7999192216447281
0.8030475211429201
0.8076535759989744
0.8148901217471693
0.8231398259975713
0.8319698804141453
0.8400359130527552
0.8487891284705562
0.8587401067937914
0.8707817265694144
0.8838963248029363
0.8965093689486893
0.9070727050473198
0.916266682039565
0.9242938517785902
0.9320106216335262
0.9375674286762848
0.9407132119340605
0.9397576509459135
0.9375712493252846
0.9351855143178919
0.9353063224511267
0.936107712260331
0.9368604684947155
0.9355411158039164
0.9333150117904869
0.9299590339270212
0.9262831796189649
0.9198923238986432
0.9104801445854112
0.8966976979738855
0.8814912803733841
0.8657863663325241
0.8521514911062571
0.8390232884494789
0.8265305147442145
0.8138585564829282
0.802679245256761
0.7939326531911218
0.7886166347527725
0.7855039916781874
0.7838471367424056
0.7826102464436971
0.7824612034046223
0.7844743808008826
0.789073768724316
0.795964488898113
0.8033327144048945
0.8104656322493506
0.8168593890839186
0.8230661462378037
0.8294921805806579
0.8353111264879539
0.8396361472465871
0.8417682606882568
0.84320952830885
0.8458295832077292
0.8508291805102464
0.8575615405453711
0.8641861982323882
0.8695049150072648
0.8748038669857005
0.8814586471618061
0.8901757484619048
0.8997354089456022
0.9083113009044627
0.9151187324029738
0.9201151061188875
0.9256825419838858
0.9323313930848666
0.9407388284444099
0.9481096360834764
0.9537562387117415
0.9583998242022178
0.9640267313630523
0.9710631756991437
0.978921346989283
0.9856728782030041
0.991588403693483
0.9964902006717264
1.001747162779567
1.007749429958017
1.0133366410469993
1.016910935535352
1.01752671398155
1.0158717890652171
1.0138516149744754
1.012100052833712
1.010413305818534
1.0070560768462204
1.0022540961453268
0.9971601235804407
0.9945801973268716
0.9952802605833218
0.9990663229303283
1.0040936013267816
1.0105114182747188
1.0190227152624403
1.0317814762842454
1.0489857937434648
1.0706809023583665
1.0950319328744842
1.1204714947102317
1.1462123723007236
1.1730728890097333
1.2013487095883484
1.2309262249715816
1.2612613952680798
1.2907896858929495
1.320077017338953
1.3478850232125485
1.3729039515135424
1.3929970004650944
1.4059702808222978
1.4127304102218552
1.4168718010942392
1.4233201447069899
1.43308803918273
1.4457936116887713
1.4573481505226773
1.4654532425913007
1.468667660245744
1.4700712472221282
1.4694851661833284
1.4687477545366059
1.4652179767167166
1.460582761233696
1.4549303922520629
1.4515632154349194
1.4504864151787027
1.452020540359019
1.45369018709614
1.4546828920065498
1.4549730542955548
1.4563195037329173
1.4592012803649168
1.4629780884581027
1.4647518222172664
1.4642993812771934
1.462301628552824
1.4613181786253402
1.4626176183665704
1.4641710954553375
1.464689909630984
1.4623758677041467
1.459200488623497
1.4573625411128392
1.4575517254783013
1.4595911706167908
1.460487085803847
1.459626455882319
1.4576047001283532
1.4569949678312468
1.4587773023520763
1.4619139937987982
1.464029007554371
1.4645146141689276
1.4636133755876166
1.464214624091333
1.466958018553729
1.4706142734054946
1.472164272706606
1.4708363925359196
1.4670520953079154
1.4635213530514144
1.4602824413796829
1.4570281054117575
1.4510037702018352
1.4417602687514546
1.4307502595110408
1.4201230366980417
1.4106216568088188
1.4012969265757345
1.3901009573160037
1.3767363673715771
1.3620278639673349
1.348035128175035
1.3360528405391265
1.3255058705659317
1.3139939927175668
1.301064814625475
1.2872392223102522
1.2752849927568861
1.265372126940611
1.2566229371416773
1.2468668470654658
1.2353726610083868
1.2222870100690328
1.2099616533814135
1.1986210844407013
1.1872492754808033
1.1732055069501155
1.1562715407397621
1.1367348171167613
1.1170563854835123
1.098604427282068
1.0814226053836529
1.0635687846581432
1.0452174390488265
1.0273510956870329
1.0118526414308302
0.999651946833854
0.9897607210430948
0.980357272945919
0.9706497251089743
0.9610409300310283
0.9535032981844762
0.948479252061189
0.9452299043418392
0.9416935737945885
0.937443605370183
0.9329917252632725
0.929790446196467
0.9282063363043692
0.9275659266757184
0.92652712916477
0.924460978310169
0.9221853721129988
0.9209604330018457
0.9216179872121704
0.9230099293247348
0.9244428984308285
0.9245891314828463
0.9245956617056906
0.9256016506716518
0.9286046421589425
0.9328222229941391
0.936895823729947
0.9397211009900682
0.9421195378816849
0.9449996148731872
0.949350551332397
0.9540963346830774
0.9578498914378839
0.959015754953749
0.9585118837423817
0.9575496781751381
0.9563358848907013
0.9540492344122347
0.9491992986900939
0.9409345468211083
0.930856935720005
0.9201821285945794
0.9095374940948732
0.8989143652702076
0.888123122971708
0.8775724908942002
0.8672130510778077
0.8577669896088911
0.8486241695653725
0.840241505990975
0.8309063732962088
0.8204652807719633
0.8092886780383823
0.7989143423162199
0.7891529478397193
0.7800279911618612
0.7701301314933111
0.7600292664126279
0.7490542743291225
0.7386937765111693
0.7291326398950897
0.7202199157555915
0.7112920628469294
0.7016319555344367
0.6916941919048086
0.6816540389228519
0.6724032335605126
0.6636761848952274
0.6545722774345036
0.6457703326884958
0.6361893408218312
0.6277054545579204
0.6190238816614209
0.6117110779594542
0.6045643901118624
0.5973052125454971
0.5899378199284274
0.5827657420479377
0.5762985885683568
0.5705539426288929
0.5651872118665308
