0.4623654933231027
0.4615698228877314
0.4609998148843512
0.4602786851746622
0.45979438057688166
0.4598259684090142
0.4607633910008799
0.461152892010769
0.462096609835788
0.4623399356665401
0.464329360414603
0.46599054791659816
0.46997317451638604
0.47288601339022607
0.4776816946272085
0.4801443887751356
0.48431192929039646
0.48711592323808683
0.49160986105610366
0.493942561412344
0.49639530883375643
0.49689236827947453
0.49840002095497
0.49920219259550724
0.5010421889621031
0.5010155526376315
0.5008359469519239
0.49876903363871794
0.497791577184152
0.49631948767581036
0.49649328039846247
0.49534183120800873
0.4949573331626048
0.4934043258339074
0.4938675367696761
0.4944847246062446
0.496976817752401
0.4985419953301962
0.5006283538669013
0.5017181378175068
0.5046838200224245
0.5081983165895884
0.5136084147797414
0.5181077303042068
0.5231883950061621
0.5273317080361372
0.5328960597118753
0.538276388355614
0.5448787564735927
0.5505340984401544
0.5563527724287722
0.5613131476120863
0.5677361802666698
0.5747791456088993
0.5831388974739656
0.5903099491808658
0.5967070005781591
0.6013616541618837
0.6069429321092551
0.6129765998728566
0.6211303566801674
0.6293610639418137
0.6385807487896334
0.6479322195242709
0.659433914420161
0.6719822014624363
0.6861031573283985
0.6984007507390017
0.7087972415034232
0.716255476744525
0.7234338407511955
0.7299170095449986
0.7366155453564873
0.7417601442107041
0.7465960690711735
0.7506059336936414
0.7560113831641191
0.7615848456380281
0.7670273561122498
0.7695137590349395
0.7696352411316697
0.7674625732253901
0.7658584037546019
0.7648443381882979
0.7650675603846324
0.7639977213408295
0.7615800819362074
0.7568366036076315
0.7513573916261724
0.744100390903153
0.7350803766693338
0.722543078528169
0.7078808319174189
0.6920138666289488
0.6774679969917515
0.6646249865104724
0.6537462713890695
0.6428353281453087
0.6323287104161953
0.6215598326183245
0.6124978774300036
0.6044635793676978
0.5978826899107075
0.5907504028994289
0.5836566399858738
0.5761191201840853
0.5703824091250461
0.5659581516058683
0.5631796863677356
0.5598910231167818
0.5563380301311833
0.552100511184482
0.5488854147312072
0.5463992831032499
0.5450374049494962
0.5430780492381879
0.5409197470059608
0.5379288699444206
0.5359426527498846
0.5346024521082575
0.5340449458561058
0.532572168951188
0.5306292674189171
0.5279059243957963
0.5263088330514234
0.5254309216528485
0.5256994583254895
0.5253409747099181
0.5244435779943734
0.5230012871218851
0.5222424284547651
0.5225233936570978
0.52357917279504
0.5240303044861631
0.5236516991514046
0.5227046659011977
0.5228101305454683
0.5238259467794002
0.5255958578342637
0.5265903497599537
0.5267227286594292
0.5260560659076597
0.5260870511300264
0.526983127535964
0.5284096735479059
0.5289545688012293
0.5284555036226376
0.5278059286806422
0.5279558151838281
0.529499787430895
0.5314915387535292
0.5331656089734328
0.5337620389293324
0.5342212300280258
0.5352902599982723
0.5379788726407398
0.5410984549498612
0.5441666537631719
0.5463279635201099
0.5489856367496098
0.5528691381039078
0.5591514386657498
0.5669860328687387
0.575867827773672
0.5851463055919718
0.5958193440723111
0.6093036438716559
0.62561239526057
0.644821760793062
0.6647910852714582
0.6853726880626839
0.706454390039498
0.7296291389754908
0.7542739884365682
0.7786809174764462
0.7986612022926939
0.8106973072485005
0.8154358295254159
0.8173715367999017
0.8200863138574449
0.8247615485702352
0.8290694689977981
0.8323480937729667
0.8347685647974723
0.8389237030068412
0.8446334381653188
0.8514987677741731
0.8568812772449257
0.8604311715355658
0.8617642621289112
0.8618371846356694
0.8613840566391184
0.8599071493591989
0.8577396336973659
0.8544163918201672
0.8522330366353003
0.85258888888646
0.8571462346535
0.8642241804217777
0.8723655368053271
0.8795718754447917
0.8867963728592271
0.8939641285188054
0.9011743148543659
0.9063669974367397
0.9085407675422025
0.9062180921353987
0.90068924510002
0.8928451774810326
0.8843121872945454
0.8745510035254516
0.8632302541613461
0.8502657271159312
0.8370818271716933
0.8254294293478974
0.8162937946593144
0.8085216116231346
0.8010976784181599
0.7931686072389638
0.785877298598553
0.7799321520089714
0.7765354126502132
0.7747892099374347
0.7735807281671337
0.7722130149080829
0.7717213812973575
0.7727396733810382
0.7760940133725103
0.7802039308402702
0.784310147075197
0.7871394042773864
0.7902718830594978
0.7948850598135732
0.8020516685643378
0.810256173357129
0.8189990585960711
0.8270748697602227
0.8358159925061593
0.8458380304467639
0.8578455301463689
0.8709793392340563
0.883507359738851
0.8940642093080741
0.9031863393893472
0.9112576749101385
0.9189518895401808
0.9244970125520418
0.9275516114415765
0.9266074510811585
0.9244772063237174
0.9221716409948804
0.9222856078097921
0.9230911838504994
0.923815900189379
0.9225065912671544
0.9202284638165705
0.9169034236124228
0.9131949672905737
0.906841522045498
0.8973951546105464
0.8836821457927521
0.8684974023686619
0.8528434672283494
0.8392336321885936
0.8261685828505331
0.8137189218317131
0.8011261499144551
0.7899961152014863
0.781371198853402
0.7761415697010953
0.7731274558483809
0.7714524859352957
0.7702115724088069
0.7700597213247279
0.7721123730627738
0.7767047213341867
0.7836065105783565
0.790935181172813
0.7981086034831283
0.8044950380940306
0.8107361597952457
0.8171275415754391
0.8229580866725139
0.8273035408808878
0.8294775797737879
0.8308918519960296
0.8334734921007306
0.8384207427517865
0.8451180018995696
0.8517291316840848
0.8570677860463759
0.8623900708376635
0.8690521262383795
0.877738868885883
0.887298989361344
0.8958563549498919
0.9027024150984165
0.9077018874466996
0.913281734705707
0.9198586706745978
0.9282026331027432
0.9355401684400403
0.941265948409581
0.9459398948054547
0.9516030845034428
0.9585795569230999
0.9664242394230673
0.9732044478695902
0.9791548124959436
0.9841500947175157
0.9894338630866161
0.9954477970318758
1.0010448917013837
1.0046062346050646
1.0053416323102229
1.003736677154468
1.0018348676904434
1.0001305936560354
0.9985686251217178
0.9952636270864426
0.9904862312576549
0.9854146825083108
0.9829704266739664
0.9838314836364566
0.9877309887909943
0.9928700696194539
0.9993866351865093
1.0079974443916404
1.020850425665797
1.0381349331965373
1.0600351178214436
1.0845847749690452
1.1103498112624715
1.1364050452663643
1.1636702634335634
1.1922120961373037
1.2222023276465288
1.252873295956152
1.2829135871912838
1.312625728655543
1.3410509185423072
1.366668191200512
1.387200626853632
1.4004128667341111
1.407328625207357
1.4116844149738532
1.4183334354214387
1.4283269783598074
1.4412491598086736
1.4530319527629298
1.4613311112586431
1.4646611316245899
1.4660949443638234
1.465407097567456
1.464472015800281
1.4607527350112224
1.4559950421924794
1.450404643722975
1.446993333502616
1.4459093170681376
1.4474048691111767
1.4490221502780485
1.450012109100579
1.4502272521428023
1.4516948259976152
1.4546947008985325
1.4584352002922116
1.4603186001753699
1.4598885621097972
1.4579654010516845
1.456900082475542
1.458115534711143
1.4598038913095117
1.4602912859156456
1.458064668899001
1.454777375821924
1.4529520957599
1.4532359564302177
1.4551772024842864
1.4560970010073344
1.4550117763932
1.4530322164303973
1.4525005636320867
1.4542931509263963
1.457470394896169
1.4594635741926025
1.4600051806913454
1.4590992796916071
1.4598279970817065
1.4626191984962145
1.4663720174258463
1.4678308628469194
1.4665881877151954
1.4629116739297945
1.459327624122057
1.4560333046219203
1.452616019078117
1.4467262609550173
1.4373294869315474
1.426176560007911
1.4154343984062392
1.4058788048092865
1.396510094555778
1.3849323538121732
1.3712407249771488
1.356189820345198
1.3419181091391914
1.3297403492423727
1.3189528453642398
1.3072122354707043
1.2938012598169415
1.279661952850218
1.2673987442081651
1.2573496986574397
1.2483022180563716
1.2383304270399405
1.2265470956857163
1.2132603088530374
1.2005702583122824
1.188952733597622
1.1771859598287417
1.1628883227651954
1.1456622241781003
1.1259060150586095
1.1060289714279474
1.087380298283992
1.0699512184387545
1.051827538885705
1.0332914174517909
1.0152853105680397
0.9997286912380521
0.9874064295342837
0.9774589134616575
0.9679729057042974
0.9582578846942271
0.9485951650686802
0.9410191335830882
0.9359133412172772
0.9326120537871944
0.9290817318462647
0.9248560141423386
0.9205078137337345
0.9173012243416774
0.9156510530227254
0.9149278580043335
0.9138531658478604
0.9117906977705349
0.9094948975515452
0.9083022462074746
0.9090332787108231
0.9104231839191645
0.9118331254695123
0.9120184989534879
0.9120837456995908
0.9131858537732048
0.9161317501093482
0.9203766441790767
0.924351707174156
0.9272433927699013
0.9296039578416438
0.9325674791255533
0.9368880353629283
0.9416296181603327
0.945368986088225
0.9465480177576522
0.9460966639339607
0.9451354384374886
0.9439542408767783
0.9416808454354709
0.9368606707487893
0.9286589809590255
0.918585551849812
0.9080078094138341
0.8973758679386017
0.8868477349758711
0.8758788695899569
0.8653067841309283
0.8550759630673325
0.8459302330372157
0.8368131437095788
0.828277854014964
0.81879893085391
0.8084902092121813
0.7974300863502365
0.7870693925157776
0.7773919165095954
0.7683035251818859
0.758606176270667
0.7484791603397697
0.737461723847142
0.7270607373353838
0.7174839414845025
0.7084860458283869
0.6992774055710017
0.6895177130562391
0.6799087105807488
0.6704628957924174
0.6612250889400406
0.6525032106312785
0.6431228074475749
0.6345302063195479
0.6249288057825453
0.61652939407481
0.6078906856070265
0.6008045663423094
0.5931676972846515
0.5858180409503787
0.5780262897513168
0.570936373370654
0.5648904573670502
0.5593187441577193
0.5538845007947706
