0.45831411393067734
0.4575665711556477
0.45700801282786996
0.4562732715069821
0.45584603679640456
0.4558648925784841
0.456750847801249
0.4571057212979571
0.45808150659354996
0.458352894638025
0.46038518308675985
0.46204621243094873
0.4660146131269588
0.46886174505173545
0.473471892810903
0.4759338377026162
0.480131783983596
0.48306295326253545
0.48754254541145664
0.48985717205787455
0.4923402246673054
0.49284107659055565
0.4943240621558636
0.495115068670486
0.4969489127719353
0.4969404184970901
0.4966932585739829
0.4946526319739177
0.4936829783398332
0.4922635739595151
0.49244558481793294
0.4913043844906827
0.490910678524838
0.48936694069297987
0.4897984021741228
0.4904193798351546
0.49289182961886185
0.4944941339921506
0.4965791787404555
0.49766192223040784
0.5006320189867266
0.5041397875769639
0.5095392025505827
0.5139703288573628
0.5190299314559382
0.5231194478345846
0.5286620174198523
0.5339815961137199
0.5405596869555208
0.5461533713651074
0.5519689573087333
0.5568762492877128
0.5632602461577961
0.5702331375570246
0.5785282361778522
0.5856185333848991
0.5919426804072065
0.5965430198991222
0.602086978477493
0.6080271417777064
0.6160968888526589
0.6242635315467422
0.6333754303919799
0.6425854867254112
0.6539404133891323
0.6663637615810982
0.6803284484913308
0.6924459259126861
0.7026921959226575
0.7100408993628647
0.7171486939185912
0.7235820328377789
0.7302386525152573
0.7353138056740692
0.7401122378281534
0.7440746807362227
0.7494699664380023
0.7548971968697615
0.7602876007421532
0.7627236327222753
0.7628975053869521
0.7607418290609758
0.7591389571062609
0.7581953375161977
0.7584110136812501
0.7573902056374855
0.7549736581221985
0.7502996542193621
0.7448500355561238
0.7376705353386378
0.7287121878949719
0.7163360827192026
0.7018627447045214
0.6862261115839157
0.6718366153595463
0.6591326907165626
0.6483996078802094
0.6376169743131758
0.6272471227353885
0.6165591044044101
0.6076061595813012
0.5996595167310361
0.5931458543412037
0.5860941159018306
0.579064033504967
0.571634706519076
0.565945535632545
0.5615522555343856
0.5587919037621141
0.5555382130837505
0.552025391646733
0.547826773900636
0.5446457014612855
0.5421608560867409
0.5408155531890461
0.5388722706929892
0.5367476375106582
0.5337683792972071
0.5317895172469022
0.5304473477319821
0.5298917062950144
0.5284251275697811
0.5264996431092805
0.523829831369374
0.5222138768956796
0.5213400342613451
0.5215907227862081
0.5212495422267901
0.5203564593309086
0.5188876666046296
0.5181199878114547
0.5184102148066295
0.5194618499626008
0.5199081079721865
0.5195049178781642
0.5185490825797116
0.5186634595233925
0.5196879871911041
0.5214443475125616
0.5224350154075781
0.5225203332119084
0.5218694982376525
0.5218800692613134
0.5228026508194048
0.5242033738947854
0.5247724825465013
0.5242626021587101
0.5236253089383993
0.5237197606097224
0.5252634993432688
0.5272178949067379
0.5289187783936458
0.5294922001390522
0.5299592916506046
0.5309877316255186
0.5336698106203026
0.5367342034009508
0.5398119424037504
0.5419382078218573
0.5446110835857149
0.5484442413176251
0.5547059948860219
0.562484907399132
0.5713326340758673
0.5805786765961958
0.5911869365764882
0.604553263912223
0.6206873307173139
0.6396746061567358
0.6594197067923887
0.6797472471852025
0.7005867856003156
0.7234637662043023
0.7477833551599615
0.7718762084545259
0.7915936602593664
0.8034938164203572
0.8081858052618978
0.8101116573911493
0.8128428525340874
0.8174885092703008
0.8217846450933316
0.8249689071046137
0.827380309048942
0.8314020313567771
0.8370368680703721
0.8438165540002533
0.8491869276807197
0.8527023686752802
0.8539952608925259
0.8540676393679638
0.8536208054501645
0.8521698307084898
0.8500310595827617
0.8468035922508116
0.8446410174918143
0.8449882077669766
0.8494106586176569
0.8564235435722084
0.864488360751888
0.8716758374688215
0.8787953166532178
0.8858830594345433
0.8929554206452371
0.8981167659706879
0.9002550434318225
0.8980077059137582
0.8925352669884298
0.8848233346557889
0.8764018363937361
0.8667769318574883
0.8556036947569523
0.8427762284123876
0.8297773331364676
0.8182685352708153
0.8092773113321349
0.8015834168133399
0.7942217160420019
0.7863848313034294
0.7791633339465315
0.7732827058222714
0.7698942255615402
0.7681610893770656
0.7669616659788686
0.7656308607728481
0.7651602893945928
0.7661609393604677
0.7694659616335644
0.7735109650089235
0.7775880935698956
0.780410623771981
0.7834754594624002
0.7880356411702371
0.7951047549303643
0.8032348015558907
0.8118735210900769
0.8198424688000734
0.8284908263321402
0.8383405741276237
0.8502051978567197
0.8631356740978678
0.8755823615146587
0.8860033152377664
0.895150140631466
0.9031421212355535
0.9107922353917745
0.9162754207109858
0.919303340760729
0.9183943412034009
0.9161887423456179
0.913886113296232
0.913971542402399
0.9148143562603379
0.9155002821829569
0.9141882317730095
0.9119685006156805
0.9086807443059699
0.9050592027476086
0.8987467502321671
0.889448288800438
0.8758326940284599
0.8608159987198296
0.84532730378326
0.8319013105206471
0.8189671968567107
0.8066766772232203
0.7941868559115726
0.7831867665898878
0.7746296166987969
0.7694445035030993
0.7664384446663782
0.7647792032634815
0.7635944566481202
0.7634671215736728
0.7655256755642837
0.7700419953487155
0.7768522905290183
0.7840971687592702
0.7911716337114553
0.7974563914441087
0.8035661397102527
0.809906930300852
0.8156790678358308
0.8199527382032945
0.8220535310313672
0.8234403161652294
0.826028129330792
0.8309635085915162
0.837608336446257
0.8441387930742528
0.8493981973764443
0.8546465831801624
0.8612486298372185
0.8698301846141397
0.8793054521288397
0.8878274799558631
0.8946314572902566
0.8996088592884726
0.9051550982410245
0.911711813102557
0.920086723674945
0.9272986066328415
0.9330137218892344
0.9375853626744537
0.9431844584268574
0.9500819670821856
0.9578576706009311
0.9645697959574348
0.9704434562088872
0.9753570810627672
0.9806064351850324
0.9865740074120541
0.9921356098221323
0.9956563179900844
0.9963744640724327
0.9947914311548374
0.9929211362468205
0.9911655423705688
0.9895437358172633
0.986227885406955
0.981520954024701
0.9764967546851105
0.9740608297542821
0.9748206791248188
0.9786340627504521
0.9836788191089209
0.9901476138904579
0.9986825978550875
1.0114257188212943
1.0286490310279597
1.0504684748169315
1.0749741921112654
1.1006507207976184
1.1266645638993142
1.1540237590460507
1.182745122249085
1.2130659065537917
1.2440683353943898
1.2747299360107434
1.3050920660468428
1.3342497427079478
1.3604636968667696
1.3816142648897007
1.3952825175268198
1.4024312564176158
1.4069675817570775
1.4138939714555216
1.424228708415324
1.4375184836307129
1.4498333036556872
1.4586007025473997
1.462264798462096
1.4637414445048975
1.4630289367074472
1.4620040538434065
1.4580765323818212
1.4531957308737165
1.4473915510308168
1.4438087484069013
1.442434710808735
1.4439247810875278
1.4457980289218706
1.447114093636645
1.4473697348732653
1.4488698188356333
1.451837768633808
1.4558053320013788
1.457677743592665
1.4573689073517013
1.4554994274625779
1.4544354783882905
1.4557403389761427
1.4571552010787818
1.4576912050094737
1.4553732752063837
1.4522191681189551
1.4503183148222396
1.4505178628246973
1.4525291796858983
1.4535337027190245
1.4524571464237896
1.4505578526226763
1.449914879982677
1.451790785717465
1.45482970525238
1.4569063119912051
1.4574504495149487
1.4566341484229886
1.4573887184152223
1.4603123475947806
1.4640118517877705
1.4656153113556027
1.464268532547435
1.460481455945767
1.4567682507952526
1.453398950081945
1.4499553537691996
1.4437209100793795
1.4339552212514453
1.422386964695496
1.4111050235336902
1.401079685162843
1.3911267464564372
1.3791733079032595
1.3650087293597475
1.3495584813722208
1.3348182736750334
1.3221940519722513
1.3110521950986427
1.2989944240614844
1.2854513156712541
1.2710382132439428
1.2586358220364378
1.248203050248625
1.2390173996027694
1.2288276602130745
1.217031631992548
1.203648750673193
1.1909524980479267
1.17922423344029
1.1674043150292241
1.1529712352974615
1.135790269340362
1.1159953775947933
1.0961423023217467
1.0774429045927445
1.0601315436070031
1.04220169891763
1.0237981341211926
1.0059732752040809
0.99047396851289
0.9783020147898791
0.9683851365462249
0.9589907827286367
0.9494087060270667
0.9398759185934583
0.9323974731206974
0.9273483164382481
0.9240854023887258
0.9206190033997053
0.9164036174140664
0.9120471987294562
0.9088711257655173
0.9072496153546254
0.9065758717841224
0.9055067484951156
0.9035566684018966
0.901298590408003
0.9001014487700861
0.9007046014539445
0.9021208545665099
0.9035392949200026
0.9037545594176534
0.9037921634767071
0.9049141282763451
0.9078395667344473
0.9120070217377892
0.9159027273001432
0.9187705974324233
0.9211001936451227
0.9240378979445321
0.9283310344039254
0.9330994550903707
0.9367973850057104
0.9380119966586881
0.9375314885387726
0.9366228803369967
0.9353365851584544
0.9331276212146287
0.9282982581211162
0.920281727678677
0.9103008567821563
0.8999118310124425
0.889361368007762
0.8788833007199904
0.8681467833498132
0.8576758829641948
0.8475163642346858
0.8382472141544202
0.8293031522870379
0.8208850724594607
0.8117781233174585
0.8014875914236249
0.7906647442050926
0.7802579963532668
0.7706024069487637
0.7617699270637098
0.7519512351444856
0.7421622425064797
0.7311325651291529
0.721196604081802
0.7115392856083471
0.7027831135491589
0.6935257905566657
0.6838554602389517
0.673791010560481
0.6642381317559932
0.6553393116966645
0.6468431820163223
0.6379645396312001
0.6290832196228221
0.6198555300121074
0.6113278667163674
0.6030335666598328
0.5959250488207654
0.5885718110598875
0.5813525466593978
0.5735824177410558
0.5665845621673598
0.560042813253269
0.5547333043668381
0.549981100507962
