0.46902060437884546
0.4683024136051912
0.4677723775764021
0.46699301358645584
0.4664972260187621
0.4665005079301553
0.46744490113696874
0.46783472239265816
0.46875299656061586
0.4690079440043339
0.4709812410851
0.47268323478760166
0.47663161218236877
0.4795200732902413
0.4840816690389147
0.4865598804360011
0.4907652176696597
0.4937641032977552
0.49826196073911744
0.5006351388772863
0.5030794113093499
0.5035744820658845
0.5050328089244084
0.5058520966957439
0.5077063927026223
0.5076981261226496
0.5074844501412535
0.5053882077946278
0.5043694197037702
0.5028971905282117
0.5030683739150763
0.5019169663123546
0.5014636806748956
0.4998838713827561
0.5002955686541337
0.5009505728219743
0.5034440515099604
0.5050449441343602
0.5071104364538329
0.508209548586558
0.5111620022087219
0.5147182273645252
0.5201332775329665
0.5246693131447409
0.5297809684092945
0.5339587294230781
0.5395669874439976
0.5449598706261392
0.5516195473496786
0.5572938075358419
0.5631257494177458
0.5680983058836785
0.5745775644215861
0.5816933775570836
0.5901289449570618
0.5973196190214297
0.6037789146367566
0.6084089741708557
0.6140118681122413
0.6200215557967996
0.6282260664134427
0.6365276891599991
0.6457889093475524
0.6551961259042655
0.6667485008784393
0.6793992165870181
0.693539522441463
0.7058841724558321
0.7163042854247985
0.7238343820853921
0.731020807654921
0.7375531851902734
0.7442847907441748
0.749503460498201
0.7543532565482927
0.7584342510979171
0.7638638296032128
0.7694520738353283
0.7748769739105834
0.7773625349969835
0.7774795750411125
0.7753115603413517
0.7736764698196265
0.7727153873112494
0.7729479549485263
0.7719390378958204
0.7694447667530335
0.7646780537341474
0.7591263623432651
0.7518625789009853
0.7427410773000233
0.7301788285553797
0.7154426795733366
0.699530439646848
0.6848871825210657
0.6720126675474959
0.661081946946171
0.6501163681944359
0.6395331667845786
0.628722360527046
0.6196195358979282
0.6115589020931925
0.6049224019564003
0.5977452055685472
0.5905767990101327
0.5830063434811791
0.5772323910392216
0.5727987877900763
0.5699867959384378
0.5666843211299734
0.5631112191937627
0.558858417926053
0.5556238285655798
0.5531118076290803
0.5517524740758389
0.5497681017418057
0.547597899808179
0.5445546217051873
0.5425251760076171
0.5411684639066396
0.5406074163318162
0.5391248060501662
0.5371589026432684
0.5344245746086295
0.5328260699449958
0.5319207095020064
0.5321764496843249
0.5318139171214187
0.530930603640419
0.5294555756106664
0.5286587769974427
0.5289178120014217
0.529987183682822
0.530434191472672
0.5300703945080292
0.5291252029404114
0.5292614848323061
0.5302738502567119
0.5320373729669887
0.5330204755524299
0.5331288047854971
0.5324712316785591
0.5325028978465067
0.5333980700397682
0.5348185414056806
0.5353478936858888
0.5348600970464007
0.5341978688009589
0.5343525138559773
0.5358784646079381
0.5378661617693754
0.5395069639151251
0.5401318766733147
0.5405554537404083
0.5416323395818483
0.5442338296969002
0.5473641309916637
0.5503999686663872
0.5526098716807296
0.5552421761898093
0.5591568555522712
0.5654460659176272
0.5733103243276257
0.5822424840237835
0.5915803943084502
0.6023341305903859
0.6158724268980857
0.6322752777479381
0.6515921299460785
0.6717251061035596
0.6924172499968158
0.7136357474344036
0.7368987202008761
0.7616555015293311
0.7861455061959798
0.8061937816357256
0.8182686810316597
0.8230690022318214
0.8250127866003246
0.8277959598881512
0.8324976614976113
0.836843579887476
0.8401105104782821
0.8425608652055049
0.8467086818464364
0.8523949753129676
0.859265047433641
0.8646885762680286
0.8682617087785517
0.8695293262673885
0.8695829608622098
0.8691543389312798
0.867738134685468
0.8656098748604907
0.8622992068132938
0.8601238657108814
0.8604509247246314
0.8649971570262228
0.8720983489822273
0.8802558805612077
0.887492698046929
0.8946932101666282
0.9018557307089099
0.9090717591018759
0.9142675125487422
0.916484624114183
0.9141207932623345
0.90861633429289
0.9007631895165017
0.8923045642808809
0.8825366413260175
0.8712556819324717
0.858218733419971
0.8450977240800007
0.8334270413466103
0.8243220172182474
0.8164542517668846
0.8089955548971234
0.8010225069507195
0.7937190431299819
0.7877054911641002
0.7842829173414314
0.7825049656510651
0.7813063709449326
0.7799305445758319
0.7794377607022919
0.7804454080926205
0.7838408085236553
0.7879496290453775
0.7920811179988795
0.7948799847107665
0.7980044990693899
0.8026286892759836
0.8098476488946049
0.8181067746108854
0.8269067371189154
0.8349888036869378
0.8437632890778024
0.8537745997543813
0.8658193840434116
0.8789161672641168
0.8915027523593311
0.902076005788472
0.9113314063508127
0.9193822402214606
0.9270894717631248
0.9326399418282286
0.9357207333571042
0.9347956491600176
0.9326166754376236
0.9303026607312275
0.9303993563588935
0.9311961360688281
0.9319072550977299
0.9305843982515537
0.9283139331212708
0.924975643919499
0.9212557429564399
0.9149239664046698
0.9054781480474179
0.8916975288575053
0.8764544282483542
0.8607530017305135
0.8471424461824725
0.8339866738849873
0.8214798635775014
0.8087722461988464
0.7975872816680765
0.7888840565125135
0.7835898758730362
0.7805329047164267
0.7788061286936998
0.7775730921494745
0.7773936631085056
0.7794519885758675
0.7840458197755419
0.7909476914026645
0.7983028402362611
0.8054590941251032
0.8118280439547488
0.8180885551562943
0.8245063644637626
0.8303658611398416
0.834620650598811
0.836771019118
0.8382121451262381
0.8408592337609126
0.8458341037426916
0.8525292738945992
0.8591371580628516
0.8644667251794361
0.8697853613940875
0.876452845945962
0.8851448049138998
0.8947275685578252
0.9033398557827224
0.9101627212052703
0.9151573101156197
0.9207561564539584
0.9274089502730674
0.9357988113328874
0.9430738385201496
0.9487786871498075
0.9534614579355722
0.9591170473164633
0.9661356010894444
0.973928887390925
0.9807325549384448
0.9866046677238589
0.9916091146765952
0.9968840473903224
1.002921426147022
1.0084906076548108
1.0120392203316038
1.0127044873241058
1.0110272587336953
1.0089869110317742
1.0072358716116148
1.0055234496260546
1.0021934990598718
0.9972880343083472
0.9922033687382019
0.9896402171252393
0.9904578874993449
0.9942988698135288
0.9993446417164028
1.0057833003552095
1.0143121783288205
1.0270639703990878
1.0443148357786776
1.0661367660420993
1.0906204615106532
1.116211792381438
1.142078867713351
1.1693039593945822
1.1977428833813748
1.2276454840854278
1.2580920749063484
1.2879711528383118
1.3174240716040837
1.3456661479632759
1.3710495104193519
1.391489998444742
1.4046230187348097
1.4114763331694014
1.4158222294224079
1.4223267550342948
1.4323020726326887
1.4450431364801355
1.4568014045018216
1.4649308010116024
1.4682634705886142
1.4696318067614347
1.4690247606094948
1.4681920895846876
1.4646888594879377
1.4598948735466277
1.4542947711735101
1.450854158956946
1.4498439248746404
1.4514183695502416
1.4530290360225553
1.454079635958168
1.454196405608683
1.4556846541344548
1.4585986584099069
1.4624365130676917
1.4641206041901162
1.4637337525886513
1.4616759286239471
1.4606380286415066
1.4618581628361054
1.463575787590306
1.4643104673505782
1.4619542240819228
1.4587047060495104
1.45672943008686
1.4570922950842282
1.4589745942746297
1.4599260214827525
1.458942857732393
1.4571133674729573
1.4564984483140804
1.4582546523472217
1.461343902199834
1.463383807776387
1.4638895150045292
1.4629151323948908
1.463632079534064
1.4664245885926075
1.4701630359668048
1.4716276967739672
1.470253058301404
1.466385572001562
1.4628231934914162
1.4597176469990998
1.456481713600996
1.4504184679339174
1.4409571454990826
1.4297996688784478
1.4190805683322636
1.4095677112746272
1.4001277353060917
1.388743388048701
1.3750294938747982
1.3602359531011374
1.3460207609624464
1.3339345221652896
1.3231454075932492
1.3115401091360077
1.298533041990339
1.2845723879425615
1.272493441172083
1.2623826998658076
1.253533294382451
1.2436251744931361
1.2319597453442885
1.21887760002015
1.2064748977272006
1.1950853338282943
1.1834487041594484
1.1692634404216944
1.1522431937154651
1.1325834453454706
1.112809043570058
1.0941914344201027
1.0768966702733969
1.0589051232416449
1.0405684044103793
1.0227164599747625
1.0072250607054531
0.9949207671626601
0.98494383266974
0.9754969864160008
0.9657838873017333
0.9561873537528862
0.9486085227955341
0.9435742695558704
0.9402874009325403
0.9367612920642279
0.932480691649558
0.92808177165771
0.9248875403157368
0.9232746198840519
0.9225648437904378
0.9215046127793303
0.91945619156862
0.9171540793147023
0.9158881503895901
0.9165094481795054
0.9179128385612458
0.9193781808054088
0.9195224717670044
0.9195798425327213
0.9206623916071056
0.9236928834847516
0.9279121296680074
0.9319089778453933
0.9347756487824083
0.9371639307033576
0.9400654455284632
0.9444406933116132
0.9491574174479651
0.9528579445763536
0.9540663975749456
0.9535650506449419
0.9526208845317398
0.9512637430465852
0.9490272706978683
0.9441900700793037
0.9360424743400357
0.9258697679377139
0.9152742883598802
0.9046172102947608
0.8939589243427718
0.8831143736378471
0.8725018652689372
0.8622400650765576
0.8528788594907716
0.8437116906594665
0.8353104217798519
0.8258614655247619
0.8154333722560931
0.804277015665723
0.7939817152158402
0.7843241396787238
0.7752536291455935
0.7650679238519188
0.7550041357961632
0.7440616071738987
0.7341572041481368
0.7243277095377725
0.7155800440494015
0.7062219232118072
0.6966446319132815
0.6864707811145367
0.6768944806884513
0.6678277465509064
0.6593402314786535
0.6500873261824638
0.641262286817306
0.6319229243041071
0.6232766960072998
0.6146983127082147
0.607468489339348
0.6002663874265816
0.5929233337712061
0.5847509080210695
0.5773375421331838
0.5711899362607045
0.5660213674407181
0.5610807460618987
