0.4609782940293617
0.4602584377442954
0.4597921066069363
0.4590722179539847
0.4586389189186474
0.45860125816156366
0.4595130831164722
0.459885535729291
0.4608435978539977
0.46112229334008
0.46314308490934086
0.464773991122761
0.46873488427120996
0.47160610155054544
0.4762864101259614
0.47877310303440357
0.48295313291399894
0.48590676871860927
0.4903590886364074
0.49269317914751887
0.49514361796662787
0.4956803255159228
0.49718778578149153
0.49798885696565914
0.4998084047795805
0.49979072411347153
0.499584352485068
0.4975346340247009
0.4965709489149948
0.49509917226946304
0.4952833614238754
0.49413030484945436
0.49375708362438797
0.4922005070853309
0.4926268944332417
0.4932426399483605
0.4957343612337162
0.4973519118410551
0.49943193898823546
0.5005098313869611
0.503464695122776
0.5070181055369918
0.5124267972667154
0.5169201850951077
0.5219811924032894
0.5261249125962022
0.5316782205069183
0.537042355261824
0.5436219574936405
0.5492877850799328
0.5550942945764792
0.560085562919048
0.5664877088862881
0.5735401636602258
0.5819056045957148
0.5890787485779972
0.5954841873149145
0.600132043082475
0.605700439790951
0.6117273496179013
0.6198788942468899
0.6281309847070282
0.6373604110775122
0.6466883174756332
0.6582112036088009
0.6707855636606705
0.6849452616084664
0.6972657259930141
0.7076597177094557
0.7151397559316188
0.7222919210185009
0.7288149124732716
0.7354798913981189
0.7406473110697308
0.745485559024762
0.7495450663478077
0.7549707576137392
0.7605146412178724
0.7659467830476753
0.7684493114194263
0.7685551247652751
0.7664064749700505
0.7647523937631626
0.7638051482785968
0.7639834936876744
0.7630035829671008
0.7605457738932755
0.755826087378103
0.7502722817668172
0.7429726896141281
0.7338962394245989
0.7213273004098666
0.7066468617214776
0.6907526897712145
0.6762117061345615
0.6633931803501678
0.65253181157388
0.641589761665926
0.6310633787988057
0.6202720797607468
0.6112362762371265
0.6032132404212661
0.5966459229978873
0.5894662307016232
0.5823645421800254
0.5748550475022736
0.5691436668996075
0.5647301386541971
0.561923695439672
0.5586348245309304
0.5550617125884033
0.5508302072730986
0.5476310243822561
0.5451258543505978
0.5438104085546998
0.5418488795545348
0.5397217148276999
0.5367010625127171
0.5347132579739572
0.5333786782971811
0.5328121038866632
0.5313376068811699
0.5293935747883517
0.5266846294718853
0.5250810472070376
0.524177006777479
0.5244429701125203
0.5241000120672318
0.5232157647664849
0.5217523402696029
0.5209654099073447
0.5212634100457479
0.5223122120716106
0.5227764618862674
0.522402867709097
0.5214812555868543
0.5216094401388
0.5226246946338031
0.5243958372913597
0.5253746995531692
0.5254815533772277
0.5248236454298619
0.5248604091954201
0.5257642665505409
0.5271754701474
0.5277206692604368
0.5272258125285394
0.5265695946560519
0.5267101504871867
0.5282451974393476
0.530214948805109
0.5318721369504754
0.532485702353229
0.5329686786666671
0.5340266479867801
0.5367132154645112
0.5397870794914327
0.5428826922293141
0.5450158512568348
0.547696504722922
0.5515792926853064
0.5578587377531435
0.5656886218403508
0.5745740939098852
0.5838896493928888
0.5946190096841034
0.608117631992264
0.6244268948753225
0.6436067822525696
0.6635941136241361
0.6842034254782193
0.7053277359201684
0.7285099185644478
0.7531820373812129
0.7776516616180247
0.7976836194302444
0.8097463510648891
0.81448764226603
0.8164388162766663
0.8192089134085919
0.8239171341973766
0.8282549410237969
0.8315130591922093
0.833967085390919
0.8381115054602825
0.8438270508258582
0.8507006311329978
0.8561457179182168
0.8597515159314705
0.8610788359256889
0.8610904096345713
0.8606304698814231
0.8591484853949228
0.8570160426615041
0.853664355955321
0.8514784588184002
0.8518109090623336
0.8563455022478941
0.8634390463968576
0.8716066702519193
0.8789341136236065
0.8861800691650654
0.8933945065598804
0.9005667605650766
0.9057683816717377
0.907928172666986
0.9056092943214336
0.9001054298309243
0.8922374723326703
0.8836810042293094
0.8738663892999377
0.8625505289928237
0.849511188408796
0.8363363771069514
0.8246425190078025
0.8155035440745395
0.8076623206876661
0.8001868322629725
0.7922186515816374
0.7848825692493484
0.7789081070162219
0.7754922883868729
0.7737585641083342
0.77256794179041
0.7712098402458561
0.7707138343666253
0.7717351268035847
0.7750916895096311
0.7792024356621116
0.7833396882246246
0.7861829920594142
0.7893588981196143
0.7939327612450177
0.8011653155364923
0.8093636461552072
0.8181843478285861
0.8262278806194063
0.8350363217114614
0.8450449743103154
0.8571059370359341
0.8702314040725951
0.8828421541675864
0.893443514998214
0.9026459322281465
0.9107550093286598
0.9184897615891222
0.9240677420482052
0.9271622423377788
0.926247907452981
0.9240616926711468
0.921731396574648
0.9218263027027407
0.9226432261806927
0.9233610442100911
0.9220087712363914
0.9197530164467358
0.9164028174136639
0.9126729798637572
0.9062562744383018
0.8967660629786699
0.8829989253191178
0.8678131583525922
0.8521146255961104
0.8384919672688931
0.8253466252532586
0.8128746719574228
0.8002462982258761
0.7890701552930915
0.7803694969723446
0.7750865798659957
0.7720268969414269
0.7703917719181398
0.7691747860421003
0.7690677137274452
0.7711118067558987
0.7757111021184948
0.7826006345534167
0.7899606471687771
0.7971538486847892
0.803599326054434
0.8098783182587543
0.8162505084755746
0.8220852492466937
0.8263828004165226
0.8285903246554228
0.8299962438500242
0.8326075298209791
0.8375722603191612
0.8443345968070625
0.8509713240435649
0.856341280589986
0.861629148843741
0.8683409448616086
0.876983949112167
0.8865915916831131
0.8951751740763492
0.9021084536485856
0.9071133042575131
0.9127307662169201
0.9193503760714306
0.9277885195662803
0.935073263006816
0.9407980991906397
0.9454918758184543
0.9511773954987798
0.9582444007032194
0.9661099228475515
0.97297173722963
0.9789272673272075
0.9839551231963889
0.9893037214358253
0.9953915293734855
1.0010332041057077
1.0046022307812619
1.0053028404990871
1.0037135885904145
1.0017755608240908
1.0000269533543857
0.9984169760257724
0.995122133763114
0.9904127929188171
0.9853451870998935
0.982911160117172
0.9837560028680027
0.9876936259121
0.9927726322750143
0.9993178430562705
1.0079525771447793
1.0208737753800992
1.0382673991133364
1.0602932512120486
1.0850741382448001
1.1109329601744267
1.1371052825155799
1.1645340122191516
1.1932613860075674
1.223455603056074
1.2542338590981335
1.2844703892085052
1.3142781854656111
1.3427588318448755
1.3683101999617737
1.388862681679852
1.4020820906055291
1.4090542797580856
1.4133180998353896
1.4199092749170816
1.4298684753385564
1.4426850132047873
1.4543510389643861
1.46236593173589
1.465697502789243
1.4671283977913812
1.4665696917945257
1.465796549977307
1.4621840604720797
1.4574991340614216
1.451726329416986
1.4483001088299337
1.4471581916938916
1.448613527504256
1.450252932411202
1.4512720868621427
1.4514966206838238
1.4528835518955818
1.4558971598632893
1.4598478704268492
1.4616560414747006
1.4612392846072786
1.4592880663530556
1.4583333501415314
1.4595506707214705
1.4610407302227715
1.461543420901321
1.4592428920978333
1.456016602175085
1.4541324277358163
1.4544062302451142
1.4564708088840208
1.4573801310379129
1.4562823715582445
1.4542602949595678
1.4536932371626725
1.4555431671699095
1.4586353340233982
1.460642962158427
1.4610405532035753
1.4601215369779708
1.4608331447668166
1.4636097573535753
1.4673487185408434
1.468923917322427
1.4676788626721862
1.463949463058386
1.4602841509237692
1.4571610282892928
1.4538282533233986
1.4479793032352013
1.438650475514856
1.4276149494501478
1.416950612431825
1.4074506436838417
1.3980543970962194
1.3866740073579393
1.3729086402261665
1.3578518692527821
1.3433857705269354
1.3311668787608
1.32027564007634
1.3084581206590438
1.2951404948808483
1.2809910190481881
1.2686976250056292
1.2584763766048057
1.249402864156361
1.2394093813900267
1.2275555282363022
1.2142154894289487
1.2015219601829892
1.1898389581688376
1.1780086405701478
1.163487026525956
1.14623231426117
1.1263511568524671
1.1064138829709032
1.0875308119716207
1.069992066441532
1.051794015584079
1.033259402090648
1.0152174905003533
0.9995308324425966
0.9871625478244217
0.977103054325354
0.967634995113978
0.9579057310578456
0.9482399918545195
0.9406073290203544
0.935459804338069
0.9321558456685399
0.9286459131560565
0.9243869044967203
0.9199983698532165
0.9167576681464483
0.9151443329789772
0.9144853494942212
0.9134253722773094
0.9113736512289665
0.9090348702630674
0.9078209401450879
0.9084604429605462
0.9098708518379718
0.9113004437167064
0.9115070782759332
0.911580341945128
0.9126793398377139
0.9156719742149352
0.9198605309289953
0.923915903311242
0.9268596266170499
0.9292917809624329
0.9321802947804113
0.9364880768781293
0.9412421753664938
0.9450043760878896
0.946190791944158
0.9457536352849515
0.9448175134013266
0.943589938785684
0.9413886999861589
0.9365123008320033
0.9284247190943219
0.9182155458790578
0.9077618803579134
0.8970237050413034
0.8864445657785958
0.8755626141691201
0.8650646311036447
0.8549187590325195
0.8454872366437773
0.8363390278594103
0.8277373427593575
0.8185678273600159
0.8082186466695512
0.7972145156002197
0.7866570839265098
0.7769988446313697
0.7678426403953093
0.7577404328209476
0.7474225842607204
0.7365703220994253
0.7265462807784685
0.7169063200666227
0.707899330240951
0.6985992430379606
0.6890065764263568
0.6790717080761918
0.6694598730485501
0.6603330097348543
0.6517478528969215
0.642712267123073
0.6335966293615598
0.6239483324901632
0.6154267154698011
0.6071196333001686
0.600009150356165
0.5924870098125213
0.5852486067222304
0.577465725111029
0.5702701559565274
0.563840145565384
0.5584249371455099
0.5534188489461065
