0.4603572859142773
0.459594016027425
0.4590114560234101
0.45825661133823564
0.45779069273690876
0.45781614713098573
0.4587513918941131
0.4591371768235329
0.46011778894281824
0.46037281016225123
0.46237825960844503
0.4640272982703138
0.467986807893144
0.47086075892446333
0.47548480700929524
0.47799412941646213
0.48218894837006493
0.48518198663564954
0.48963235612288974
0.49196570102768467
0.4943704339057045
0.4949150422455737
0.4964073932399449
0.49722893762546627
0.4990661689453264
0.49905890542253484
0.49885556501293776
0.496742869511133
0.4957836493182002
0.49434792785362264
0.4945590460146215
0.49337703366653757
0.49297646304361903
0.4914201250076564
0.4918569235968152
0.4924466838985985
0.49493592834703815
0.49654725047146364
0.4986402908562092
0.4997429747050612
0.5026939202907637
0.5062268441005282
0.5116023073862052
0.5161177229899219
0.5211783182774374
0.5253204898990055
0.5308576324460317
0.5362526785679762
0.5428514124310836
0.548475362102503
0.5542664067761192
0.5592428347665087
0.5656665548689381
0.5726670112572939
0.5809754162683967
0.588087960741423
0.5944645740575256
0.5990787958864466
0.6046191262348372
0.6106104470555411
0.6186629255367159
0.6268775206909686
0.6360297235601736
0.6453187039943441
0.6567291664480885
0.6691948372482398
0.6832237138286648
0.6954026636269766
0.7057071400610179
0.7130975450026609
0.7202196324299914
0.7266379394279253
0.73326747286162
0.7383780856965091
0.7431413330990135
0.7471601313807599
0.7525177903778038
0.7580793270222212
0.76349761767745
0.7659641818048826
0.7660676502314859
0.7638843334581714
0.7622763667525647
0.7613886449594851
0.7615912869167617
0.7606139860701308
0.7581185321949102
0.7534226059649065
0.7479306944254973
0.7407270936206707
0.731830307608424
0.7194094627753521
0.7049097289029899
0.6891056496982847
0.6746786405705252
0.6619117252581033
0.6511524339151631
0.6402951383101037
0.6298684947470842
0.61916090020847
0.6101490658033016
0.6021869693894671
0.5956342579170201
0.5885479750472902
0.5814720112737731
0.5739993556909758
0.5683028907936662
0.5639113963318596
0.5611460720883208
0.5578518037579329
0.5542936470504768
0.5500709648607108
0.5468819810495313
0.5444026585088564
0.5430572676830442
0.541081431435324
0.5389233185648913
0.5359209989079837
0.5339781768888264
0.532648428832392
0.5320885609436792
0.5305990783987345
0.5286531570278752
0.5259722292618143
0.5243670772563749
0.5234625731891588
0.5236887612091821
0.523325918499716
0.5224618430389106
0.5210066643766205
0.5202479420884625
0.5205316077580197
0.5215992514001876
0.5220396385518705
0.5216713635832034
0.5207304422588761
0.5208627836944395
0.521877370619168
0.5236209672637544
0.524602672576076
0.5246800299937975
0.5240325382567034
0.5240492115114093
0.5249544142996285
0.5263735502674866
0.5269395956378851
0.5264480874565034
0.5257945294868783
0.5259220161819573
0.5274724876144485
0.5294402550311965
0.5311154326539409
0.5317176228787407
0.5321893124929712
0.5332544094321996
0.5359138128178377
0.5390027018927802
0.5420723366742395
0.5442271613899801
0.546895410082355
0.5507601402312563
0.5570175413880806
0.5648347429589535
0.5736973346842585
0.5829915115037304
0.593638990821174
0.6070575973933474
0.6232673542231641
0.6423332841159338
0.6621990554506596
0.6826083406096719
0.703534146227763
0.7264602301002416
0.750895807072389
0.775067879862864
0.7948806280124779
0.806771366847071
0.8115044231860835
0.8133749031187755
0.8161234262119561
0.820763491266168
0.8250883991106013
0.8283305332215236
0.8307427948264129
0.8348127089961892
0.840462439742484
0.8472464297254321
0.8526335735244185
0.8561611550361953
0.857475345925277
0.8575153827332368
0.8570565116221119
0.8555819517941051
0.8534914686803672
0.8502359192204442
0.8481277826404918
0.8484358920632125
0.8528889462959907
0.8598908459428755
0.8679530331989146
0.8751538145170408
0.8822720999466456
0.8894219864624473
0.8965258685999814
0.9016913310629782
0.9038211932538252
0.9015164601065394
0.896019354410469
0.8882884264258234
0.87987738492368
0.8702586253973528
0.8590368536468257
0.8461898810563008
0.8331684262977316
0.8216544355391555
0.81264027760704
0.8049206858444028
0.7975349550315722
0.7896411471214917
0.7823623731928107
0.7764583091365995
0.7730957512001292
0.7713758444929371
0.7701966388617421
0.7688336558511399
0.7683706873056546
0.7693604553893586
0.7727158923111836
0.7767850689529976
0.7808751090928874
0.7836447651037316
0.7867133281103168
0.7912389187991589
0.7983639169250125
0.8064952178751525
0.8152131161547314
0.8232022384597357
0.8319204526653627
0.8418072796095936
0.8537100063796453
0.8666614037776739
0.8791295137895374
0.8895814819720352
0.898714678050921
0.9066715873694217
0.9143371562902232
0.9198126558164793
0.9229102177225055
0.9219477413342143
0.9197540736390781
0.9173907761583995
0.9175195929290999
0.9183462146248111
0.9191066642340433
0.9177827665131326
0.9155441230133718
0.912288046410937
0.908609018218242
0.9023229157770287
0.8929206360640992
0.8792899273726372
0.8642397211062987
0.8487110483182382
0.8352502262943926
0.8223014530881584
0.8100007111761409
0.7975124971263156
0.7864499259691344
0.7778591196374925
0.7726513010117618
0.7696823312453128
0.768030350402031
0.766813498019185
0.7666424133273392
0.7686716028090229
0.7732637474723566
0.7800967102647304
0.7873768893222889
0.794462093481916
0.8007539378772595
0.8069176442307893
0.8132147589007104
0.8190346043568824
0.8232956988637883
0.8254458313565114
0.8268287234049599
0.8294217154040474
0.8343452998597035
0.8410048781982595
0.8475602131752595
0.8528458503537751
0.85810769479239
0.8647198467755267
0.8733160263210572
0.8828279047028198
0.8913501970824281
0.8981808315344018
0.9031115766987386
0.9086771344176311
0.9152346833302164
0.9236121119971948
0.9308369282884887
0.9365045271528726
0.9411288017147668
0.946664917024775
0.9536044086576925
0.9613710350892555
0.9681581139484917
0.9740048230905123
0.9789432797293518
0.9841698202664845
0.9902102238143267
0.9957524455040822
0.9993541923757365
1.0000614279637448
0.9984533650922681
0.9964998557272499
0.9947036590863453
0.9930872466097932
0.9897787348900573
0.9850690958532389
0.9800397670435986
0.9775885936462075
0.9783889695648411
0.982223204217783
0.9872229818935935
0.9936806538348081
1.0022395644700657
1.015037884885389
1.0321916134094824
1.0539704531404759
1.0784063537314263
1.104053238511559
1.1299506002560993
1.15717196787198
1.1857496473726972
1.21586019983596
1.2467156497632266
1.2770160131173325
1.3071146465568197
1.3359902585707417
1.3620843851170736
1.3829464160051377
1.3963824198196697
1.4034337377007389
1.407920135598691
1.414617737268822
1.424771076439451
1.4379371748865544
1.450177969975145
1.4586805397844522
1.462249433962503
1.4637038796285682
1.463025849287627
1.4620391087722284
1.4583585133827877
1.453578098582679
1.4478485670223304
1.444128730804309
1.4429408180001446
1.444412050902408
1.4461487997008844
1.4472693397556515
1.4474319717551283
1.4490282449759848
1.4520193382733855
1.455970682053389
1.4579008267393119
1.457552209028617
1.455729680456635
1.4546171623834145
1.4559520120907057
1.4574783659556176
1.4580994170723214
1.4557104805811159
1.4524968757654697
1.4505443549983714
1.4507954101486737
1.45271180490943
1.453666889442761
1.4526524408018868
1.4507438902674434
1.4501119926019201
1.4519163206815284
1.4550535167091312
1.4571510886717864
1.4577697715355256
1.456859705655345
1.4575700827439775
1.4602747642842115
1.4640961171066373
1.465667710500361
1.4644891006407967
1.4607147065033848
1.4569933462913525
1.4536835502176908
1.4501635904403092
1.444069230040793
1.4343057630541984
1.4229284434986076
1.411791436229815
1.4020182865430395
1.3921653219045274
1.3804132534494666
1.366354203934325
1.351082989642004
1.3365556217197367
1.324032380344838
1.3130213377346616
1.3011031027397408
1.2878243666918028
1.2736857084652995
1.2613689348416681
1.2511605783160231
1.2420418358131777
1.2318902118571975
1.2200088489876102
1.2066512993475915
1.194094499845934
1.1824865572029055
1.170828254448816
1.1564191235505492
1.1393169732203703
1.1195474741559472
1.0998016417049945
1.081157765296226
1.0638565467526568
1.0458754980002627
1.0275031518146311
1.009663084772098
0.9942016036245921
0.9820061206952476
0.9720882711554634
0.9626892138549078
0.9530334030211821
0.9435151570755295
0.9360199548746747
0.9310183924774231
0.9277252863455353
0.9242739875569949
0.9200575747452682
0.9157475199240128
0.9125526123970638
0.9109582402815112
0.9102539925590111
0.9092239679632539
0.9071883810830402
0.9049213876685509
0.9037124646610624
0.9043699972047005
0.9057873588512166
0.9071915613084266
0.9073691686068919
0.9073761463322619
0.9084592080115366
0.9114378621574455
0.9156111788112372
0.9195920396579912
0.9223603615722319
0.9247612757724303
0.9276101191181331
0.9320062736855723
0.9367344420926439
0.9404617587265371
0.9416182505192415
0.9410985657015543
0.9401221297445543
0.9388466585608339
0.9366236817392839
0.9318050678707719
0.9237242051980376
0.9136440085738777
0.9032386263389793
0.8926585689900373
0.8820989253215603
0.8713100298249731
0.8607391427674701
0.850698731234849
0.841431740930898
0.8324377399525115
0.8239700041157207
0.8147119152185457
0.8043797140134712
0.7935085827375028
0.783026856845113
0.7735018607298664
0.7643388969455642
0.7544929301443893
0.7443714818738997
0.7334553402456728
0.7236091754530665
0.7140963634625493
0.7053376463346626
0.6960861004964313
0.686436936900448
0.6763366354333701
0.6668433193766997
0.657876491798375
0.6494554533693901
0.6400670769834116
0.6313074711842458
0.6220558334132997
0.6139268998406358
0.6054283667049898
0.5982103265570153
0.5907028817874087
0.5835074122981552
0.5758618263545727
0.5687465454456332
0.5624335981750066
0.5569576498303804
0.5517170852119966
