0.4609790804584102
0.4601437058419375
0.45953691657717594
0.458753610966847
0.45828550350815833
0.45831097408940596
0.45923827529194555
0.4596105440869024
0.4605481722405259
0.4608084842763192
0.4627940115508409
0.46444673302289524
0.4683851163861435
0.47121944910432034
0.4758506132426135
0.47833655706409733
0.4826039790550826
0.4855709830078793
0.490079263069858
0.49238239015670693
0.49485977269858383
0.4954083613630847
0.49695743677602816
0.4977449639248914
0.499522269334249
0.49948306961209715
0.4992750331713195
0.49719810875024417
0.496237439310607
0.49477202059304015
0.49499965793912953
0.49382178958027195
0.49343243610532367
0.4918621344688287
0.4923069429411267
0.49292560372116373
0.4954271213310994
0.49702952483071106
0.4991149657471141
0.5001924199789507
0.5031604527405141
0.5066844409256054
0.5121090977587958
0.5166198632883673
0.5217749009255596
0.5259265208662484
0.5314842061926845
0.536812019791607
0.5434345396629439
0.5491358989396025
0.5550478418032344
0.5600159145265795
0.5664702509029519
0.5734950582285758
0.5818811820962984
0.5890486698798169
0.5955034398037347
0.600199862055944
0.6058116841722364
0.6118029952339695
0.6200100454101911
0.6282283006711713
0.6374941507489149
0.6468206304486168
0.6584033784497093
0.6709326105256546
0.685042518899675
0.697361261277414
0.7078630747621228
0.715366698923206
0.7224988835866218
0.7289649601387989
0.7356955507405089
0.7409148509628881
0.7457836025085658
0.7498265242508131
0.7552547300365213
0.7607755207538863
0.7662251685076731
0.7687136783487456
0.7688618009346689
0.7666617634582643
0.7650290818899425
0.7640441917005688
0.764243030538939
0.763232074095043
0.7608522644226251
0.7561516383268096
0.7506050174775897
0.7432362147920171
0.7341544208196858
0.7215683633578505
0.7069521093297513
0.6910577262430965
0.6765680910985867
0.6636467694021315
0.6527684593294193
0.6417580094198377
0.6312124305209091
0.6203994016296698
0.611315954250775
0.6032726599864884
0.5966294153602086
0.5894929460010949
0.5823913060543101
0.5748874563786618
0.5691100703484976
0.5646724995257661
0.5618689587883794
0.5585788258508857
0.5549855840744358
0.5507005688499937
0.5474973623563104
0.5450216528930337
0.5436909139183408
0.5416996627129332
0.5395106467356003
0.5364759342893226
0.5344894514873253
0.5331360428301173
0.5325840433246418
0.5310879209584566
0.5291144901606127
0.5264204530870881
0.5248233538920571
0.5239520553727527
0.5241805605856891
0.5238211628062875
0.5229498124503065
0.5214929822653832
0.520709278046657
0.5210055171258406
0.5220641252546858
0.5225133388128602
0.5221215805031277
0.5211928450116642
0.5212805787765922
0.5223138512889128
0.5240538492674208
0.5250642437693787
0.5251627556948376
0.524524446552299
0.5245843973560177
0.5254980762624771
0.5269117211506494
0.5274552708354727
0.5269587420667272
0.5263073651925376
0.5264264301987258
0.5279534722528564
0.5299225216692666
0.5316424059962734
0.5322801367580667
0.5327701015257
0.5337910076965338
0.5364190442090432
0.5395200833549848
0.5426083283250174
0.5448129861496099
0.5474830979812825
0.5513891778589732
0.5576826172951254
0.5655499541588843
0.5744673748381416
0.5838113156155174
0.5945595493502238
0.6080784851370469
0.6244231412131167
0.6436589559939344
0.6637068806960841
0.6843682771520496
0.7055309239227353
0.728748135290332
0.7533752645929012
0.7777590295413995
0.7977962435233948
0.8098587438958434
0.8146870414337561
0.8165956050496078
0.8193667040285382
0.8240583965532257
0.8284131688449381
0.831713426632833
0.8341836912947466
0.8382881621340826
0.8439773637731851
0.8508136892944743
0.8562635917349234
0.8598536166330715
0.8611542907480474
0.8612704345124109
0.86075732298368
0.8593597822477254
0.8571342207712189
0.853889996017607
0.8517070749449679
0.8520817995841747
0.856547161427793
0.8635824597575467
0.8717049580043024
0.8790457074662282
0.8862789339160414
0.8934708784018057
0.9005842940192951
0.9057597691978041
0.9079249349876376
0.9056009714467318
0.900104260892431
0.8922490872390318
0.8837482258355146
0.8739527673651946
0.8626685119391088
0.8496767531728359
0.8365429445923603
0.824884440029571
0.8157779558351165
0.8079540171582017
0.8005008910926292
0.79254501719302
0.7852277322725536
0.7792379273598085
0.7758353734914184
0.7740902783421885
0.7728744721737654
0.7714823865500368
0.7710138058363597
0.7720811546029316
0.7754572999533087
0.7795254675981856
0.7835844891508977
0.7864213997375861
0.7895913168880728
0.7942554668923911
0.8014376450461114
0.8096693938211277
0.8184286182060858
0.8265002684463687
0.8352424298631143
0.8452381645238677
0.8572571258696415
0.8703435940832357
0.8829459358340221
0.8935142944423571
0.9027885751577311
0.9108054629012419
0.9185555556037415
0.9241041128256137
0.9272403717333708
0.9262921260999237
0.9240456016851347
0.9217175225747108
0.9218161603375425
0.9226160214739453
0.9233298048919653
0.9220055741563917
0.919798943342169
0.9164286490271845
0.9127222566439801
0.9063548849127187
0.8969818520034437
0.8832317553104895
0.8680419527119595
0.8523437594811928
0.8387064603555832
0.8255907147944239
0.8131032260808152
0.8005106269274465
0.7893363855873164
0.7806699046296125
0.7753484113993127
0.7723209483481386
0.7706269613251129
0.769444545094342
0.769252458876179
0.7713068214495054
0.7759050996872121
0.7828554001313983
0.7902282379244371
0.797364329680758
0.803748282065034
0.8099698636568332
0.8163540812834911
0.8221603338478022
0.8264321449327943
0.8286018386096611
0.8300264893666103
0.8326136010470853
0.8375509227447643
0.8442757151110821
0.8509142091898858
0.8562767568985465
0.8615871213150709
0.868268616129911
0.8769438472930896
0.8864710311495928
0.895074992373676
0.9019242826453335
0.9069205251542696
0.9124797339479058
0.9190635641630276
0.9274494998709254
0.9346970387164675
0.9403542736653131
0.9450074463829874
0.9507006453333101
0.9578202289367377
0.9656714042402205
0.9724767462479629
0.9783570808557653
0.9833343190183551
0.988605532754787
0.9946385026992649
1.0001966850142736
1.0037556933327727
1.0043825054840787
1.0028444547343487
1.000816352074395
0.9990901508638456
0.9973906176022393
0.9941068877612013
0.989321378736389
0.9843017661802753
0.9818318630963445
0.9826227072028101
0.9864199817337109
0.99145942473295
0.9980311571376735
1.0066493353302908
1.0195135157314863
1.0367522017998887
1.058570782512972
1.0831120928042925
1.1087177090406795
1.1347245316748282
1.1618585165676938
1.190426315722038
1.2204696430302724
1.2510514861180362
1.281085102644138
1.3107227527963496
1.3392129822304184
1.364906210060099
1.3853015833804334
1.3986904030137322
1.4055154464557145
1.4100335795375762
1.416629436450081
1.4265815402986908
1.4395996487455363
1.4515152994278442
1.4599689255559358
1.4634656317785943
1.4649298345450419
1.4645568197506427
1.4633055651640914
1.4594597551970592
1.454599246455785
1.4490815764174891
1.445791915647853
1.4445478746093303
1.4459815362901445
1.4475275630143314
1.4485984590654781
1.4488870541061267
1.4503382187245761
1.4532453720564895
1.4570469001211013
1.4590274554713336
1.4585253630244286
1.4566110994224826
1.455554713547386
1.4568633553276114
1.4583989277267186
1.4589472451309269
1.4568052306799453
1.4537615566832434
1.4516972333991873
1.4519671652190635
1.4537375579842107
1.4548647199666658
1.4538277407868945
1.4519304772399004
1.4513093220382463
1.4530334990915774
1.4561428323735022
1.458078095674043
1.4585498538814794
1.4578547985468489
1.4586497447499385
1.4616541823760574
1.465004337758274
1.4666219911889
1.4649869283772183
1.461697068046712
1.4579061327311191
1.4547894041187823
1.4511796122664675
1.4453289958536668
1.4357935287379568
1.4246083648686882
1.4136079019704666
1.4041981508867492
1.3945479178702034
1.3828307078680502
1.3688790342751747
1.3538265286027948
1.3397282016145429
1.327530486929918
1.3167688600848462
1.3049760527945506
1.2917611272662548
1.277645201848875
1.265487967776748
1.2553894499903646
1.2464044459392996
1.2364057290258343
1.2246155886536136
1.2114118235644007
1.1988250664073905
1.1872997398320144
1.1755889794037067
1.1613453135086231
1.1442883532488164
1.1246892370897597
1.1049309746675944
1.0862895792235612
1.068896343670058
1.0508098681267652
1.0323683065116886
1.0144766414892021
0.9989043685829049
0.9865799614908056
0.9765988769243426
0.9671931606253173
0.9574194865072793
0.947753556489236
0.940154476337678
0.935142350581594
0.9318674615614158
0.9283789672067642
0.9241198631989531
0.9197302536523829
0.9165105732570196
0.91496509484706
0.9142721027485619
0.913265313072909
0.9111589216647791
0.908872883439641
0.9075821482678513
0.9082088373079431
0.90961083008102
0.9110969316821168
0.911285481335593
0.9114050288448269
0.912478389682103
0.9155247462640439
0.9197367604764438
0.9237285122313803
0.9265798488897561
0.9289249025223446
0.9318428595260699
0.9361819422129668
0.9409571543515207
0.9447759847994521
0.9460866152850274
0.9456116490826992
0.9446843334152004
0.9434507147927708
0.9412376769853898
0.93641550728887
0.9282637954910353
0.9180560913707758
0.9074163976909401
0.8965648211666588
0.886139084403786
0.875315712358118
0.8647712096682072
0.8544868924624933
0.8451079744521258
0.8362206763289741
0.8277213690445752
0.8182937237869059
0.8079850892838937
0.7969044359238064
0.7864768657544561
0.7766081955915444
0.7675112306050985
0.7575737596713468
0.7470708754799031
0.7360865595559938
0.7261904751316525
0.7167791471364791
0.7080984377462041
0.6985645923549283
0.6890821415977202
0.6789045396078903
0.6694612058488966
0.660031790236366
0.6511783749150367
0.6419217361229138
0.6330941534145804
0.6237741765313296
0.615242059855883
0.606862873102316
0.5996033345012504
0.591910423163025
0.5846326439979022
0.5768881461706044
0.5702331796437501
0.5639941942201594
0.5583969985478225
0.5525327246438698
