0.45928360675478447
0.45853531467016057
0.4579887704465534
0.4571756963809082
0.4566987322933239
0.45671461294501764
0.4576815383240093
0.45804563593533526
0.4589781299067598
0.4592327876133778
0.46124292471552963
0.4628795816808601
0.4667897857455359
0.46962153174566246
0.4743713572988196
0.47687491048257635
0.4810948695895208
0.4839694269727307
0.48843176317678316
0.4907699945508196
0.4932374576662123
0.4937610169145706
0.4952648122284422
0.4960366421600255
0.49789291025647997
0.4978534805284218
0.49765006870034145
0.4955223970878542
0.4945880158235869
0.4931246695639946
0.4933673099397142
0.4921907783475151
0.4917907074419756
0.490205059432898
0.49067193262214714
0.4913100710727912
0.4938453456723958
0.4954256045408561
0.49752034770861003
0.4985674766916124
0.5015420096000248
0.50508161109342
0.5105093582308379
0.5149576147187492
0.5200351936319806
0.5241415312553436
0.5297095077317344
0.5350359511046262
0.5416277122857666
0.5472412929310526
0.5530441687544208
0.5579813848949322
0.5644447237001479
0.5714433731058851
0.5797716359246796
0.5868474421734716
0.5932790988120652
0.5979090400800996
0.6034818926643848
0.6094035184652026
0.6175420926514131
0.625703754756947
0.6348877552163575
0.6441146045033392
0.6555747159398571
0.6680017039285798
0.6819936080364715
0.6941526458646196
0.7044855463150619
0.7119016505591798
0.7190216138067729
0.7254610552472232
0.7321149103717371
0.7372649239487035
0.7420827737034901
0.746093231752045
0.7514354878579738
0.7569237490367396
0.762360461000377
0.764803619959363
0.7649384302055424
0.7627372013021131
0.7611904399856827
0.7602094650189112
0.760442146495698
0.7593817841749172
0.7569892442728134
0.7522923211559566
0.7467997632902879
0.7395548868732915
0.7305776633639646
0.7181686706533792
0.703667643894092
0.6879208246174036
0.6735345878353484
0.660801145024059
0.6500373154966452
0.6391457368523619
0.6286591729481767
0.6179569543513528
0.6090006109678744
0.6010321173758595
0.5944585178386229
0.5873263858164174
0.5802912378814006
0.5728310145189935
0.5671103434088997
0.5627065503064018
0.5599291110552788
0.5566900320200929
0.5531400192038779
0.548897969202138
0.5457297581754118
0.5432681940057266
0.5419831356035713
0.5399761543557346
0.5377981474956853
0.5347410826907261
0.5327751700065126
0.5314409154959063
0.5309341611587108
0.5294601906911546
0.5275160105218355
0.5248129218713743
0.5232356456972501
0.5223723645914287
0.5226101090850572
0.5222339054239709
0.5213487086134859
0.5198766380322521
0.519127102906654
0.5194159202376393
0.520471134689377
0.5209086859268698
0.5205388329099403
0.5195937143715218
0.5196796212553115
0.5206864328008087
0.5224586027855433
0.5234580091853202
0.5235758347132513
0.5229259847766506
0.5229683059653918
0.5238363513230966
0.5252516716755589
0.5258291740389804
0.5253449167701554
0.5246768131276798
0.5247727051600286
0.5263253922557375
0.5282954839608335
0.5300019136163578
0.5305997646484386
0.5310977686133826
0.5321353977784608
0.5347831162074387
0.5378765372762015
0.5409397899859796
0.5431284043868879
0.5457860896916098
0.5496572137161683
0.5559259796042677
0.5637266737648451
0.5726180160450965
0.5818883633354348
0.5925310311985004
0.6059510464994045
0.6221592466968743
0.6412557160574348
0.6610736521263374
0.6815027311947254
0.7024281509579002
0.7254431860771982
0.7498327823969351
0.7740170922419141
0.7938246060064474
0.8057626037568305
0.8105093264683205
0.8123742015301105
0.8151325442142437
0.8197734444248576
0.8241066650958029
0.8273531607567862
0.829791981360831
0.8338788934371623
0.8395354696771966
0.8463116195939907
0.8516921656538234
0.8552163906776677
0.8565251541721121
0.8565550768038463
0.8560901807863732
0.8546433814695868
0.8525243716238099
0.8492654619989135
0.847144052569374
0.8475002206888541
0.851938078203489
0.8589279807509311
0.8669993162891537
0.8742132368149818
0.8813668920312676
0.888469734316924
0.895569844843119
0.900697042726986
0.9028617717700834
0.9005616771177679
0.8951362863711928
0.8873552649572883
0.8789426671098489
0.8692753162328354
0.8580926835592624
0.845220755262762
0.8321421490234916
0.8205847563389236
0.8115763912991629
0.8038536386620542
0.79645708885371
0.7885944096853518
0.7813119142640024
0.7754035763536338
0.7720206730266748
0.7703432256391596
0.769167470190368
0.7678085829805041
0.7673234416578444
0.7683478659198882
0.7716405002789686
0.7757161499559806
0.7797580140124698
0.7825801746847837
0.7856488941575956
0.7902239285975146
0.7973543532498988
0.8055075406098493
0.8142119045578484
0.8221830513568752
0.8308864685155993
0.8407749780051443
0.8527156498696785
0.8656733735677964
0.8781764060959096
0.888646065628231
0.8977815789178261
0.9057299621881363
0.9134068819248722
0.9189484139406394
0.922020620695213
0.9210501381484041
0.9188468166567784
0.9165553457842712
0.9166670483579724
0.9174807471412966
0.9182250834612934
0.9169272654886109
0.914672862897221
0.9113161340244621
0.9076782134354149
0.901450563868011
0.8921386843236041
0.8784870480913031
0.8633890823964404
0.8478799070376029
0.8343766002616674
0.8214143765609963
0.809001154941494
0.7965214489130117
0.785430787598679
0.7768669878973766
0.7716454085444446
0.768665114404299
0.7670079465996693
0.7657981540225692
0.7656397952379723
0.7676802435066744
0.7722431996705321
0.7791020380532895
0.7863783134512116
0.7934828174439923
0.7997766435607733
0.8059645707934414
0.8122783619931094
0.818061934766717
0.8223122283659726
0.8244605610159695
0.8258589869259273
0.828435730192081
0.8333836618581876
0.8400616779574425
0.8466261731719792
0.8518842197515422
0.8571491292162632
0.8638130748180162
0.8724398910900865
0.8819362538650376
0.8903963243550228
0.8971877565743879
0.902151022224874
0.907718895660163
0.9142502527030869
0.9226043331067971
0.9298938949217368
0.9355780576938276
0.9401263901606112
0.9457012626278851
0.9527023696672058
0.9605417026230553
0.9672886601025145
0.9731534775175051
0.978080268398187
0.9833312710867576
0.9892906453669229
0.9948574978632732
0.9984633983567529
0.999167863073812
0.9976103090302175
0.9956040338453717
0.9939125438594554
0.9922456524796259
0.9889267084998458
0.9841716786797514
0.9791614699000034
0.9767522383781655
0.977533390651217
0.9813988483786416
0.9864574401802854
0.9929375808371095
1.0014558286333712
1.0141822692051032
1.031330768682018
1.0531404198213903
1.0776477056736142
1.1033672145973132
1.1293720874069653
1.1566998559847046
1.1853802063002241
1.2156145503618394
1.246363351908125
1.2767072691905592
1.3067439323780923
1.3357130868180254
1.361853655012736
1.38268302250322
1.3963906766346144
1.4033205924195529
1.4079971188702245
1.4147002277344696
1.425021336001207
1.438213587147155
1.450326669588009
1.4589306711176642
1.4624844105813382
1.4640496584496423
1.4635320403700363
1.462245938344383
1.4582890366671404
1.4533089202617877
1.4477126352309955
1.444354463933197
1.443259088751209
1.444706501497439
1.4463858512933616
1.4474787627159795
1.4477995196783835
1.4492260916885142
1.4522080502759342
1.4561964098905174
1.4580969412870979
1.4575041156019786
1.45542100394348
1.454380990674811
1.4556235520824352
1.4572226250922253
1.4578760900249
1.4557794382274556
1.452713686124449
1.4506739433423397
1.4509288786093033
1.452750301692419
1.4538356651047193
1.452815660194157
1.4509664375638152
1.450353829905774
1.452166096286547
1.455140292804645
1.457004130254553
1.4574045294005444
1.4566563453130412
1.4575867281767858
1.4605751906577742
1.4642536633385355
1.4657944766741584
1.4643146161970126
1.4607862222170052
1.457119473523275
1.4539343230246258
1.4502911307683726
1.4441360968746715
1.4344470242113714
1.423124023681208
1.4119466341745435
1.4021268049030409
1.3921963179297128
1.3803329538020452
1.366215521517668
1.350932330784095
1.3364411826603895
1.3240755744496437
1.31300051970366
1.3009805683370388
1.2875671312764543
1.2732773307974323
1.2609892103712346
1.2506127866935977
1.2414551082226524
1.2312999135376195
1.219401255556081
1.2062266072125936
1.1935687970440472
1.1819956436075914
1.1701404386257088
1.155853797390028
1.1387152045488587
1.1191034372599549
1.0992547882288062
1.0806003898776877
1.0632262927057268
1.045228803915394
1.026788627977223
1.008894620995487
0.9933475468797507
0.9811910374734656
0.9712704671126688
0.9619172671561463
0.9522341706329057
0.9426723800042263
0.9351697275807103
0.9301276577189778
0.9268708278876243
0.9234052123750172
0.9191829520663645
0.9148205748934021
0.9116264898096783
0.9100837261803613
0.9094050707064045
0.9084182349216656
0.9063919271362094
0.9040950146379488
0.9027679025697136
0.9033656230642395
0.9047648630677355
0.9062674592195092
0.9064195213036733
0.9065727959936714
0.9076976361285535
0.9107121240915539
0.9148484141822156
0.9187592764347647
0.9215771898896263
0.9239299025974902
0.9268065044773665
0.9311659832469636
0.9358774454941919
0.9396335458770482
0.9408588951490489
0.9404263651119268
0.9394575504451422
0.9382159097843501
0.9359791148023302
0.9312157891924566
0.9231510915180496
0.9130420005076106
0.9026190031125945
0.8919485265020807
0.8814943045609437
0.8707860020014202
0.8603195376451777
0.8503163218406738
0.8409107471901757
0.8319564376685405
0.8234237812786271
0.8141542302196754
0.804032992238443
0.7932127034026194
0.7829926394164024
0.7733751074577921
0.764290558262901
0.7543751034568429
0.7439498232489686
0.7328341763236869
0.7228429748417112
0.7131833912555019
0.7047032598494493
0.695315551045934
0.6862479542480765
0.6760740465408457
0.6666637557065611
0.6574163249488122
0.648729960542439
0.6397804814454561
0.6307293690218008
0.6215047092073297
0.6126051696549417
0.6041975361612077
0.5971055997248403
0.5897390098703394
0.582539256664717
0.5748111596102707
0.5679767330316084
0.5618575028450804
0.5564852213721082
0.5514224486931968
