0.45836885254579635
0.457592493918026
0.45700985678361045
0.45621916359876136
0.4557197255178616
0.4557787334877994
0.45672875893629367
0.4570994222900877
0.45804549505305225
0.4582648503839641
0.46030503621138114
0.46188108795392924
0.46584463645449764
0.46868434672769116
0.4735051479858909
0.475964501029867
0.4801971289109365
0.4830303058553076
0.487531075186827
0.48980866173262794
0.49224487279700735
0.4927605895149297
0.49430502636050544
0.4951229176358125
0.4969769459029986
0.49695590808993484
0.49673122488529964
0.4946119268320094
0.4936635343170805
0.49219994389620436
0.4924592114092555
0.49129365968863536
0.4909225266036767
0.4893279425976053
0.4897729033303267
0.49041512032442114
0.4929136420600415
0.4944833791996458
0.4965633232098244
0.49763594991664256
0.5006449657049507
0.5041411858340803
0.5095707737614171
0.514031634737874
0.5191616474877219
0.523303107916662
0.5288675894727686
0.5342153265345349
0.5408116777589553
0.546466606852409
0.5522950391860513
0.5572533223630082
0.5637236564497983
0.5707427158524105
0.5791076370456679
0.5862393133972926
0.5927365480086338
0.597436578103527
0.6030764527531491
0.6090327085125806
0.6172429593002763
0.6254165488891716
0.634686293019366
0.6439928883305875
0.6555606317259566
0.6681153802480958
0.6822309962777718
0.6945406470193368
0.7049905299040229
0.7124704675875054
0.7196342010822022
0.7261432168168124
0.7328674011163765
0.7380649124640039
0.7428833030271506
0.7469376005006744
0.752409704384837
0.7579705143932549
0.7633962223761858
0.7657963947761962
0.7659826116242858
0.7638024270085271
0.7622178198301314
0.7611720917997208
0.7613906201359901
0.7603497975063578
0.7579588518043268
0.7532381473840578
0.7477539155183797
0.7403974052011745
0.7313340496995875
0.7187164311032928
0.7040614171836705
0.688142520831132
0.67361326118329
0.6607387680225143
0.6498667659357755
0.6389147321725759
0.6283904043084374
0.6175920256610943
0.6085339389680575
0.6004892237472663
0.5938993272939777
0.5867335242989582
0.5796295931858462
0.572099668880159
0.5663786828841121
0.5619467947797671
0.5591600957912162
0.5558505767240938
0.5522951298999079
0.5480593042577899
0.5448767199306705
0.5424007840947287
0.5410779175859809
0.5390875463138488
0.5369396596692709
0.5339015742095498
0.5319116994175698
0.5305463945496046
0.52998649868452
0.5285157205765877
0.5265502212960111
0.5238734085093645
0.5222692359668485
0.5213801450420217
0.5216110338960924
0.521258606651347
0.5204229685329725
0.5189420389096501
0.5181749454320608
0.5184397240758445
0.5194904853597201
0.519933210773371
0.5195607568379379
0.5186403166113943
0.518733690708319
0.5197499701494692
0.5214860671767736
0.5224820585126275
0.5225747179623329
0.5219569424161454
0.5220093675098658
0.5229217527119691
0.524319242937449
0.5248839391577615
0.5244082848267244
0.5237566246860226
0.5238566537605397
0.5253780331466823
0.5273290590614043
0.5290100897497068
0.5295880596566327
0.5301010162143761
0.5311468956699551
0.5338297575335346
0.5369108886086196
0.540007199857697
0.542178349389632
0.5448726247886831
0.5487616593981046
0.5550511897628216
0.5628819907294307
0.5717911615067521
0.5811240087769396
0.5918423803257826
0.6053737555390822
0.6216893924013418
0.6409344201724337
0.6609202010995484
0.6815779218224055
0.7026932889161274
0.7259431374071377
0.7505959201335274
0.7750840546215204
0.7951605425172393
0.807254686631785
0.8120254868721591
0.8139326531679895
0.8167143382783978
0.8214306865164083
0.8257785118497246
0.8290405443382297
0.8315098759954879
0.8356435280589267
0.8413928226463598
0.8482755591422732
0.8536931656751595
0.8572931776318102
0.858602359772547
0.858698455001063
0.8581876292627599
0.8567133149428233
0.8545123940807935
0.8512101620728004
0.849051192209526
0.8494386293207362
0.8539214755834713
0.8610102713418628
0.8691539733601714
0.8764755893705478
0.8837064783291949
0.8909304326033329
0.8981216822980669
0.9032913718495188
0.905459178293444
0.9031699655617471
0.8976535958588823
0.8897886125774265
0.8812179027874135
0.8714120663478699
0.8600297942393591
0.8469977242328414
0.833803522687572
0.822162199731104
0.8130095268169588
0.8052122117913585
0.7977273535335558
0.7897951126952145
0.782446018748286
0.7764732476287787
0.7730820144875281
0.7713342441698275
0.7700992290883827
0.768687742693551
0.7681970652755172
0.7692372324989034
0.7726143607860712
0.7767316179899698
0.7808457578260555
0.7836933115414897
0.786886660508408
0.7915105735055428
0.7987069674831615
0.8069119792659087
0.8157158864732447
0.8237818759117156
0.8325680488066473
0.8426148056435134
0.8547197007254312
0.8678362827893031
0.8804359298753598
0.8910064127467973
0.9002814013379672
0.9083617727181914
0.9160927549914504
0.9216227159115807
0.9247019464215533
0.9237677659091168
0.9215667926487998
0.9192825588534989
0.9193822933475526
0.9201963261082658
0.9208775493102576
0.919542337320466
0.9172552183715501
0.9139072744890776
0.9102159023748295
0.903928005355739
0.8944558750772552
0.880691108248221
0.8654350016936257
0.8497439635311769
0.8360566026995526
0.8228854429043939
0.8103801146523395
0.7977540056981142
0.7865958710925439
0.7779179707049695
0.7726216138766374
0.7695466176126232
0.7678678628967481
0.7666629202334885
0.7665375721012221
0.7686098749178873
0.7731954919290867
0.7801234388152861
0.7874730028722584
0.7946720808452784
0.8010967468840463
0.8073252658296219
0.8137106197487538
0.8194858297769144
0.8238269137492852
0.8260292866159036
0.8274967573362184
0.8301224350316012
0.8350611714307236
0.8417861999854257
0.8484070905853769
0.8538112508634567
0.8591344009002068
0.8658367626032097
0.8745215936271838
0.8840880845719677
0.8926581538506025
0.899494238096082
0.9045344548636418
0.910169930529535
0.9167755400931182
0.9251194041855226
0.9323469782957722
0.938090975762229
0.9427615514177217
0.948505402521348
0.9555596582101155
0.9634520855008268
0.9702621986307448
0.9761787719423369
0.9811969238322635
0.9865022946409392
0.9925553234598018
0.9981526197074354
1.0017084122218318
1.0023963315796927
1.000826233957257
0.9988663169873798
0.9971561873736617
0.9955280392385104
0.9922405696120825
0.9874873895873157
0.9824310560923271
0.9799522871744895
0.9806810046950881
0.9845427429265687
0.9896394682543459
0.996233983527911
1.0048588808626875
1.0177705274651834
1.0351751711517154
1.0571221082779283
1.0818222172521175
1.1075726896035656
1.1337475246485833
1.1610528913718163
1.1897631648606226
1.2198787159184483
1.2505632471285548
1.280691880078442
1.3103865908524563
1.3388984064087248
1.3644597156901395
1.3850013115574589
1.398384419922059
1.405317083162581
1.4098295934565295
1.4163683799872877
1.4264640366340469
1.4394489339224494
1.4514407270123577
1.4597595443121785
1.4631638371869944
1.4644572602077828
1.4639413521547695
1.462619020951884
1.4588450039246137
1.454040700950663
1.4486866506034857
1.4452670295502232
1.4440887493521941
1.445395285145463
1.4472409739872742
1.4483471458352861
1.4486702366249262
1.4500468769980228
1.4530124861126792
1.4568886634569913
1.4586689298904592
1.4580738904661261
1.4559864734915207
1.454978032125016
1.456170392951788
1.4578341556743357
1.458496765598961
1.4563481536084
1.453185769584218
1.4510941251188454
1.4513281647285907
1.4532326915286504
1.4542896367030769
1.453363839675417
1.451277991338831
1.4507663487946105
1.4525615388307205
1.4558501637349899
1.4576867217476837
1.458024449322254
1.4571828947140475
1.4577957020579353
1.4608437452566367
1.4645457106406794
1.4663180576272565
1.4647161320671132
1.461127430552326
1.4575724195023123
1.4546022611908644
1.4512682420065857
1.445173943062611
1.435544297597045
1.4241871698182407
1.413414393145007
1.4038940018537915
1.3944237328438898
1.3827037663049002
1.3690420326252217
1.3539632024801214
1.3396099060412927
1.3273578313890289
1.316415084249846
1.3046894114154624
1.2913776689340168
1.2772829494728644
1.265100358442569
1.2548871738402498
1.2458120962277772
1.235702910944703
1.2238706488709234
1.210650976268107
1.1981004747665867
1.186521737329296
1.1747841018733065
1.160405236772462
1.1432313576133406
1.123446223220738
1.10352643075111
1.08473416753867
1.067243519564941
1.0491490281616493
1.030601050698551
1.0126049712160903
0.9969082851526171
0.9845828172496957
0.9745403002514506
0.9650226894573337
0.9552442703451736
0.9455557629758636
0.9379883671781388
0.932901169999473
0.929608173088722
0.9260798841516675
0.9218195762375224
0.9174076959846921
0.9142100098531786
0.9126872952517942
0.912001475304195
0.9109448769799252
0.9088172347483006
0.9065286959724437
0.9052544622736601
0.9058570061545164
0.9073050016660126
0.9087715599292024
0.9089600593098928
0.9090525100877207
0.9101717648419185
0.913200387129173
0.9173901123898818
0.9214038994254583
0.9242637231449075
0.9266380849983363
0.9295858256441637
0.9339902159035999
0.938787060431015
0.9425528662024361
0.9438050561152543
0.9433893023631131
0.9424909440750858
0.9413188525483819
0.9391018444184279
0.9343082221352728
0.9261598102551998
0.9159795469571718
0.9053689516987863
0.8945982923940254
0.8841190730532501
0.8733197251761197
0.8628973033625453
0.8525306336084458
0.8431169720346597
0.8340634413092534
0.8256986971061885
0.8163918028155539
0.8059856214174864
0.7948357386488325
0.7844257337129885
0.7745755778165346
0.7655467361933542
0.7554494349597684
0.7450254231155049
0.7338829894553612
0.7238611053631683
0.71404568339005
0.7055877390346035
0.6961766708173805
0.6870846639025889
0.6766032945138232
0.6669390056082389
0.6573643969274483
0.6485069227082001
0.6395452739102672
0.6306963036714692
0.621483310646959
0.6126970398278121
0.604446067183212
0.5972524236439525
0.5895118050010671
0.5821611249972887
0.5741591535290276
0.5679285458839571
0.561314147423821
0.5564342841845593
0.5518456636073695
