0.4618783171621585
0.46095856832496995
0.46032921026541296
0.4596271670813453
0.45916412916590027
0.4592003353414397
0.46019116461797954
0.4605253813110035
0.46144830471280435
0.46166954658233383
0.46366707495302706
0.465308477056614
0.46923567526747456
0.4720749925425657
0.4767392989713416
0.4792164938094074
0.483478555182673
0.4864147639676879
0.4908964149780382
0.4932421553540894
0.4957060522139566
0.49624143720557395
0.4977046816724408
0.4985521458436636
0.5003699437624999
0.5003645247827271
0.5001273123210663
0.49803369612508286
0.49707563966839713
0.4956400891494481
0.49584850423269317
0.49472006641561656
0.49432614141155873
0.49278703040140576
0.4931912933051714
0.49381155413568706
0.49632197910353504
0.4979479230985887
0.5000299061920522
0.5010882834911182
0.5040314012256533
0.5075247321360782
0.5129365223553388
0.5174162361473558
0.5225489815423209
0.5267148345230439
0.5322615533483553
0.5376383301800832
0.5442625456933788
0.5499659909446152
0.5557619742058638
0.5606859904198661
0.5671076581509
0.574140020917921
0.5824911444856917
0.5896287635821629
0.5960458449522816
0.6007108422045196
0.6063245799306054
0.6123132065747191
0.6204654485494921
0.6286710134034635
0.6379458056655269
0.647286603113137
0.6588421310725375
0.6713770319168227
0.6854780129368631
0.6977411247764874
0.7081454146665797
0.7156052488550307
0.7227198950925717
0.7291749908474028
0.7358480970488354
0.7410295214975511
0.7458936402160312
0.7499826873995636
0.7553681822770336
0.7609112853134029
0.7663404814800066
0.7688403788817101
0.7689496417106787
0.7667541755815214
0.765168526643978
0.7641697195811317
0.7644112122508963
0.7633508319145191
0.7609514757171585
0.7561974929525087
0.7507123879181212
0.7434136916232227
0.7343833248879275
0.7218355879766082
0.7072307728673797
0.6913189426533468
0.6768244615421122
0.6639800427941963
0.6531545214197022
0.6421795339895412
0.6316804219736697
0.6209114624296573
0.611914407247368
0.6038553847235719
0.597245495113284
0.5900662751303539
0.5829942106168787
0.5755247317743247
0.56978555586968
0.5653652590628491
0.5625466511565037
0.5592611410748352
0.5556891217631835
0.5514590993352254
0.5482784458767741
0.545800824893234
0.5444524466875973
0.5424859330718841
0.5403447013033468
0.5373634697748081
0.5353690951931614
0.5339697635943023
0.5333947480510631
0.5318943281958305
0.5299523059654723
0.5272583555901927
0.5256712938557322
0.5248010459742593
0.5250305907479105
0.5246485121163311
0.523747967859386
0.52229140584607
0.521528288596619
0.5218522525521998
0.5228968436639442
0.523374864919348
0.5229949029850319
0.5220827277954323
0.52218875322164
0.5232056764026851
0.5249625626896667
0.5259735151220853
0.5260765121420361
0.5254375029105044
0.5254650672873574
0.5263729527121516
0.5277890776247067
0.5283673633094406
0.5278701138171163
0.5272032418462734
0.5273092815223756
0.5288288395088422
0.5307957358560125
0.5324821386677651
0.5331526663234624
0.5336413923406605
0.5347032065350857
0.5373410435187452
0.5404506939594116
0.5435112898796151
0.5456789642467721
0.5483464945224659
0.552233238012246
0.5585211621571836
0.5663239302018801
0.5752153215849186
0.5845122063255905
0.5952562049173573
0.6087419268019442
0.625031640884962
0.6442145129220745
0.6642240947088576
0.6848030438636014
0.7058834174947064
0.7290157218779143
0.7536617141853336
0.7780404150122556
0.7980080954542184
0.8100043575615116
0.8147731015214835
0.8167351586016718
0.8194842773238802
0.8241634465532659
0.8284849991696844
0.83176547066391
0.8342255387139914
0.8383350999832117
0.8440325660540478
0.8508719531213204
0.8563203214870283
0.8599128069112676
0.8612145332020202
0.8612310673574318
0.860751735515438
0.8593237020233969
0.8571595755040505
0.8538487849611959
0.8516511320550088
0.8519764865102524
0.8565113694942078
0.8636178729907658
0.8718086368357776
0.8790726592248201
0.8862499884324254
0.8934144492563221
0.9005903147914556
0.9057698041430251
0.9079496138643056
0.9055639098348017
0.900096858925065
0.8922354163094951
0.8837403774322911
0.8739340358348786
0.8626414101169869
0.8497164035506961
0.8365702338371543
0.8249243215997001
0.8157516152233197
0.8079674141832667
0.8005004974349257
0.7926088914152992
0.7852646354573112
0.7793017932335753
0.7758679751890603
0.774122476414227
0.7729192044274064
0.7715772478772144
0.7711359495121126
0.7721761277750412
0.7755146990668995
0.7795969438812754
0.7836811722623889
0.7865075109481838
0.7896158425325229
0.7942373797403809
0.8014355127173945
0.8096493131565541
0.8184115356219082
0.8264352644227312
0.8352235681484989
0.8452008038461064
0.857190114590327
0.8702575054623968
0.882861503905017
0.8934388481470986
0.9026489276833107
0.9106604695338376
0.9183879845911359
0.923935571304258
0.9270939239394455
0.9261954088221389
0.9239732507530155
0.9215975535706042
0.9216558424773373
0.9224862177096836
0.9232518985609877
0.9219554435995743
0.9197424627846752
0.9163374657916941
0.9126377969131482
0.9062805053110597
0.8969198571713611
0.8831665144115979
0.8679521254382965
0.8522583116307797
0.8386730292014682
0.8255822415154974
0.8131696150784617
0.8005744348729196
0.7894615708308262
0.780755691566348
0.7754896021919568
0.7724712426202158
0.7708332134745525
0.7696170984942304
0.7694348365238979
0.7714754476098816
0.7761086200490838
0.7830356966655518
0.7903867758824558
0.7975350847530063
0.8039119903533598
0.8101308662149874
0.8165074437571701
0.8223417270129664
0.8266675551719904
0.8288278806881924
0.8302231210974118
0.8328593827348045
0.8378281163458258
0.8446105859289803
0.8511896084124372
0.856513185027877
0.8617436636731313
0.8684669621791806
0.8771066833163952
0.8866762007753539
0.895187346436524
0.9020303910617886
0.9070823558971981
0.9126897469723012
0.9193376375488701
0.927671722242299
0.9349481972210595
0.9406573278349514
0.945312322118221
0.9509149422534278
0.9579420790897406
0.965752478306183
0.9725866416439095
0.9784635599718396
0.9834574762316423
0.9888197485301419
0.9948781972081667
1.0004408584413154
1.0039428636705636
1.0045993223893135
1.0030887942153464
1.0011703319122707
0.9994986261913452
0.9978317973743159
0.9945076885067431
0.9897736139299905
0.9847705252130056
0.9823823643514048
0.9832146015764713
0.9871464517258234
0.992190877636456
0.9987128041255322
1.0072860870383225
1.0201511093646716
1.037456405198607
1.059325574777918
1.0839697881559398
1.1096158833544767
1.1357393762944592
1.1629733822746093
1.1916437143553416
1.2216307450797725
1.2522431849282278
1.2823960614694658
1.3120019349496401
1.340374583882523
1.3657642494025806
1.3863762504448374
1.3998675037328465
1.4066635740175513
1.4110722286570034
1.4175055336466515
1.4277351305981163
1.4405081948216019
1.4523506617383122
1.4604627591514086
1.463950957576828
1.4652715691749367
1.4649167160756729
1.4638039675081385
1.460135984195915
1.4553250577428614
1.4497020792077404
1.4463298757949368
1.4452808987158385
1.4467251581373368
1.4484871730622384
1.449502113624658
1.4499513846871557
1.4512443370031105
1.4540576709217965
1.4577930095956053
1.459766791617983
1.4591846561134467
1.4572503575952365
1.4560667771133804
1.4574203546227622
1.4589554403615257
1.4596166515280116
1.4574570303570074
1.4544250459088925
1.4523611233063687
1.4526241350326812
1.4544860017202421
1.4553909037489972
1.4543786376540186
1.4523170044231613
1.4517786892388547
1.4536323927125654
1.4568256199710756
1.458848477260061
1.4591803785545918
1.4582856857001312
1.4591186619922307
1.461988586768896
1.4655800800654983
1.4671675360080463
1.4658364696855664
1.462266667008775
1.4586018187430503
1.4555134629735746
1.4521001666130502
1.4462220169940432
1.4366910944633724
1.425573921279416
1.4147680488578156
1.4053032617693597
1.3959634049009817
1.3844850336175465
1.3707072278198889
1.3555530374478895
1.3412331497638523
1.3290989303872998
1.3182915958818675
1.306490850738317
1.2931510714236918
1.2789950846023856
1.2668598193459248
1.2565909158950888
1.2477203907933847
1.2375953248393508
1.22594760654723
1.2125868272742581
1.1999724645747487
1.1883545981678927
1.1765361546731936
1.162264798347287
1.1450326045211157
1.1253387306191909
1.1054244565650644
1.0866985977924541
1.0692969755321753
1.0512280573774768
1.032794538263911
1.0147869106689669
0.999229269919516
0.9869010943409966
0.9769183718028085
0.9673847763068915
0.9576548123874938
0.9479997608419602
0.9404033491426106
0.9353348062366247
0.9320252260109101
0.9285611265664241
0.9242605339119988
0.9198641229841269
0.9166062923594721
0.915042540345279
0.914364300542502
0.9133944163026512
0.9113456193824105
0.9091040611647567
0.9077829812658442
0.9084889226077104
0.9099184526362062
0.9113930017318074
0.9115126249235878
0.9114956537223827
0.9126064184730176
0.9155923923577445
0.919899782851992
0.9239211032051965
0.9268131633607001
0.9291731680938762
0.9321412541294553
0.936520600139382
0.9413330878878411
0.9451167802132064
0.946412354248181
0.9460157593888806
0.9450694421217254
0.9438763382173591
0.9415249961692935
0.9367662367847194
0.9286622875181749
0.9187080679460147
0.908250452353408
0.897543309172646
0.8869308869495826
0.876053535676814
0.8655755006508343
0.8553811772020371
0.84608490974092
0.8370387218954803
0.8286959939501768
0.8189791227439459
0.8084763409891186
0.7972244410873073
0.7869416412817405
0.7770461171784786
0.7680604200158384
0.7583120372564892
0.7483047788180933
0.7372726723309099
0.7272936533753159
0.7175861018927083
0.708958411957148
0.6993894702505211
0.6895160259147189
0.6792617437467307
0.669719451979371
0.6607529797930656
0.6517134104876362
0.6426167558269225
0.633528537641444
0.6243988394480819
0.6155719616909363
0.6077159823221434
0.6005654053843167
0.5932133528971097
0.5856722892825839
0.5778850591622602
0.5711481502361112
0.5649422685926127
0.5593644219832498
0.5534612641980126
