0.5514070199888349
0.5831259467888193
0.5527877631557226
0.5772322951020986
0.5857443292156721
0.5950214290710538
0.6044178289276557
0.6015983196762087
0.5984952195730892
0.5975791205889435
0.6046331637982911
0.6021324740094922
0.5967970000965271
0.5948353491927137
0.5974432902046642
0.6000132711545505
0.5975410172950381
0.5959024039119932
0.5923009290325512
0.5932945810125967
0.5913841356644276
0.5895552195334999
0.5879528833978943
0.587493086224668
0.5910388768662771
0.5938357321485708
0.5913459133914937
0.5930651397109378
0.5913115019762488
0.5899495208655486
0.5927211297355774
0.5904129281370745
0.5906330425645061
0.5909833945351833
0.5906586328920803
0.5933739472380987
0.5982989441488378
0.6002364689344571
0.6032447011970988
0.6064543508623479
0.6101115143706947
0.6150593454836143
0.6199006698161257
0.6234307230896919
0.6280800714994909
0.633601238004114
0.6359986230062458
0.6400590055229993
0.6412466456390604
0.6419752010712682
0.6436261820353173
0.6455532525932528
0.6461302975250816
0.647506974284484
0.6455927201418031
0.6460281468741512
0.6468083191543834
0.6454879435861318
0.6423344125780113
0.641983152593625
0.6398674594101984
0.6409759388262732
0.6422693390866607
0.6428168875672599
0.6439914024679483
0.6461374721509141
0.6477326260265401
0.6517065428622316
0.6564774948173671
0.6598789185809851
0.6631258092734451
0.6659016705954667
0.6698157485904883
0.6755321695046903
0.6816608624590409
0.6885489592296512
0.6961216875009976
0.7040953112399235
0.7159999190612836
0.7277579331675587
0.7379790983751576
0.7465463331273755
0.7561340334079399
0.7628622461249194
0.7742727112092305
0.7830241064600074
0.7911939596253696
0.7966681232419
0.8058635699772431
0.8079377245227518
0.8056782168615431
0.8057204695445803
0.803528882740888
0.8018671619353295
0.8005053427168062
0.7993802405334361
0.7970660024251194
0.7982263463943072
0.8005569512532579
0.7987526555024144
0.7947383648149601
0.7935871819849875
0.7955237375957819
0.7932748408999154
0.7993229789977124
0.7944695020084386
0.7984632448255932
0.8020480023148356
0.8015162254959806
0.7965232233717792
0.8006704313468946
0.7969244334895794
0.7953176150956389
0.7891102919782061
0.7870450694662214
0.7813957972395237
0.7813471395311551
0.7780070046108323
0.7753344785818684
0.7769453120531181
0.7808668169209778
0.7822404559987461
0.7895473815932117
0.7876746381740927
0.7889582947804757
0.7925081659155675
0.7947116637295973
0.7909460931434652
0.7927072359112599
0.7945043872691046
0.7985873689426609
0.8022579419069868
0.8013672950390431
0.8006364593629616
0.808292345899726
0.809790779926662
0.8068921916551985
0.8099447605089884
0.8103234880929544
0.8147937444791218
0.8184047005833823
0.817466006595591
0.8171271696343079
0.8171806570141552
0.8155679445390008
0.8119203358067708
0.8120475840032942
0.8093788379679275
0.809588880257205
0.8107901723992958
0.8119933396012122
0.8120506663548505
0.8145185316228525
0.8166643030537893
0.8204985427954368
0.8292998001163405
0.8448256928261372
0.8701641725760441
0.8970174200557047
0.9284678488681074
0.9571014725101342
0.9946485083653333
1.0192858357613002
1.0351029071150062
1.0391158655210344
1.0384160923550179
1.0284016203959985
1.0207572962919471
1.009599216205275
0.9954355689403223
0.9837711780135964
0.9686612318255498
0.9552133969323875
0.9447656437347876
0.93238976924657
0.9217536045354757
0.9198836636614593
0.9170766538592657
0.9184983463713108
0.9222987555369678
0.9297815947719908
0.9413796974984636
0.9502766807647356
0.9587071571000717
0.9665251326721325
0.9790371817370803
0.9898440791798448
0.9964233549476955
1.0025744215434413
1.0128110291664205
1.0161547723621505
1.0202240004932295
1.0201699754435056
1.0185785857088558
1.0153194530876313
1.0110992340060494
1.0070380446281777
1.00441891778149
0.999798447762963
0.9941227035390975
0.9905984480130503
0.9874201800504375
0.9859197174465862
0.9858378004167166
0.9855930333781987
0.9893129068729397
0.9951466148200211
1.0018774924012617
1.0089610388287378
1.0157412466894042
1.020983145534818
1.028668315676892
1.0302738786863093
1.0306520331679965
1.0357306839219227
1.0427288546982891
1.0467670291741857
1.0448532949434282
1.0378519360611091
1.0380848369588511
1.037533868350711
1.0318998797947592
1.029624514117777
1.0329895506522604
1.0403195211601166
1.0511897935401642
1.0571209706316458
1.0693962199533218
1.0801002234343924
1.0893545043081383
1.0926364929509687
1.0914443680699026
1.089838559616706
1.0874141172746816
1.0808634405170072
1.0792421560604757
1.0711035992851923
1.0628241179411189
1.060891765108742
1.0572113364280458
1.0620283051219088
1.063631427823895
1.065089885980474
1.0812027283880152
1.0972933670658578
1.1099793008937058
1.1279397367078239
1.1399595906697508
1.1524110019476341
1.1768712852759722
1.174189682173154
1.1719503036716097
1.1669008618043661
1.1669952632263347
1.0678091269343524
1.088515279842692
