0.4545642060290486
0.45380434352475724
0.45325744120692607
0.45250076680542034
0.4520292199246072
0.4521027335435918
0.45305945547069587
0.4534714725987796
0.45438962423035184
0.4546042920222471
0.4565908724656794
0.45821724687338045
0.4621720718220334
0.4650064986898598
0.4695907290327889
0.4720942493097408
0.47633391905119715
0.4792793775068263
0.4837298174820073
0.48602762665955174
0.48852105268847884
0.4890025915304357
0.4904953109357659
0.49129963708860863
0.4931513863640429
0.49315904630705837
0.4929472437972315
0.4908921725361985
0.48995484293455605
0.48849354944653206
0.4887244659853667
0.4875753513763841
0.4872248364296665
0.4856399012718346
0.48604608795618176
0.48666907818277494
0.4891772347743892
0.49076999283435235
0.49281920574680266
0.493875565831587
0.49680385008079425
0.5002982991345002
0.5056711937373554
0.5101225116955621
0.5151647256627561
0.5192600293266896
0.5247365561666718
0.5300047719554234
0.5365212549565379
0.5421368770818477
0.5479114415261329
0.5528162535347713
0.5591933970075939
0.5661358513151276
0.5744008244428583
0.581424242354525
0.587780806705065
0.5923571942348016
0.5979136936076352
0.6038200414358873
0.6119100768404492
0.6200072225171148
0.6291622188641152
0.6383639912334429
0.6497668091098237
0.6621429114388708
0.6760555348005138
0.68815837095819
0.6984615070768948
0.7058780350488896
0.7129721824858638
0.7193901952198399
0.7260158440914058
0.7311356400509681
0.735938439408696
0.7399469066005792
0.7453379679847054
0.7507949597099541
0.7562006222191947
0.758653185202539
0.7588415903165466
0.7566862200400786
0.7550787323173901
0.7540681460749407
0.7542650475243623
0.7532733272947413
0.7509045590600354
0.7462243442894276
0.7407444413804477
0.7335072095740699
0.7245725740470509
0.7121578320793835
0.6976986856371484
0.681982249693252
0.6676287264101357
0.6549290165358096
0.6441917671479057
0.6334173044938998
0.6230450904841793
0.6124553960948625
0.6035347060520022
0.595582112368871
0.5890356564049226
0.5819317848163061
0.5749555446682476
0.5675430225298376
0.5619202894031493
0.5575312027376926
0.5547900274286178
0.5515537309718219
0.5480508335170207
0.5438690055129924
0.5407074869379025
0.5382724677755875
0.5369475988354326
0.5350033928896313
0.5328845682646874
0.529905615959247
0.5279098950158625
0.526545774048632
0.5260290106008971
0.5245783204446722
0.5226218020469554
0.5199116789621485
0.5183326182068657
0.5174964863609101
0.517755877241044
0.5174050150605023
0.5165328286012121
0.5150917099033607
0.5143039569190715
0.5146018424609138
0.5156125724564127
0.5160731335234157
0.5156528948508187
0.5147272424705237
0.5148343708007497
0.5158445044266305
0.5175834881781076
0.5185852395229505
0.518676555458189
0.51806861914658
0.5180343822599859
0.5189631416658137
0.5203072098539683
0.5209177830094248
0.5203863629985046
0.5197446102179858
0.5197732687536433
0.5213124120576555
0.5232281535661376
0.5249778468544716
0.5255501188558968
0.5260476918664079
0.5270198904726466
0.5297038002339326
0.5327663782029384
0.5358511467875386
0.5379661682528217
0.5406241260378771
0.544446186457657
0.5506940145264065
0.5584352156620745
0.5672681700508464
0.5764555818905303
0.5870795408642633
0.6004374131445632
0.6165587303297265
0.6355294861988584
0.6552670780849426
0.6756144444200307
0.696469658407631
0.7193988519483567
0.7437687569871466
0.7678917812552867
0.7876480787545922
0.799539944179337
0.8042446114375413
0.8061615757283175
0.8089042378454103
0.8135673375679686
0.8178790943163798
0.8211152764990098
0.823537430008611
0.8276002075912445
0.8332705575598437
0.8400276679158929
0.8454374015540544
0.8489849516539711
0.8503260235313619
0.8503595646831188
0.8498785371936435
0.848447309739974
0.8463018653678914
0.8430284750494286
0.840847642891461
0.8411613211912121
0.8456398588572664
0.8526820707475617
0.860798066426168
0.8680172061664643
0.8751457213901004
0.8822534789195001
0.889361080902709
0.8945520400232142
0.8967474796489637
0.8944284626089183
0.8889665673825655
0.8811596696362399
0.8727373096920725
0.8630398361179397
0.8518523574717788
0.8390183829484499
0.8259926074885258
0.8144768004725711
0.8054195218077336
0.7976901215420965
0.7902715075864768
0.7824102111875247
0.7751409736664477
0.7692206854394391
0.7658310613127017
0.7641163923259577
0.7629023545932163
0.7615798961828598
0.7610969177584764
0.7621662663330148
0.7654624861846385
0.7695360542187325
0.7735596346451179
0.7763656848760745
0.7794395530411973
0.7840233486085615
0.7911399669937546
0.7992852488475934
0.8079310052593168
0.8159132191724653
0.8245752758205775
0.8345092171603937
0.8464106940154573
0.8594095467103927
0.8719185891816608
0.8824095911467157
0.8915879689514318
0.8996078521626842
0.907305513281509
0.9128221452752657
0.9158953651411958
0.914981446424439
0.9127460625893613
0.910403375582084
0.9104180457753269
0.9112461463812911
0.9120203013997403
0.9108116967665237
0.9085672067101773
0.9052257744891044
0.9015418542611391
0.8952724876935898
0.8858842801542147
0.872245136580387
0.8571444669342552
0.8415684537318394
0.8280640479905678
0.8150696282278992
0.8027501974733866
0.7902702256264227
0.7792423392454827
0.770659837328942
0.76542912142275
0.7624497461358045
0.7608144785098976
0.7595883321503523
0.7594342688234275
0.76145211962666
0.7660150811592713
0.7728422477978074
0.7800948276616609
0.787197404289185
0.7935123745207217
0.7996892997303304
0.8060263025033871
0.8117430447647495
0.8160098959191738
0.8181266758104531
0.8195660606254924
0.8221749106112706
0.8270895683116539
0.8337841443406584
0.8403200180135748
0.845600510474094
0.8509045282001553
0.8575618714353733
0.8662072949048122
0.8756554409250149
0.8841541383904108
0.8909844673531517
0.8960008085181496
0.901631110532185
0.9081530292324757
0.9164915858901131
0.9236916551119482
0.9294553164737994
0.9340772095115525
0.9396890472846611
0.9466609766117363
0.9544958817067332
0.9613560301295999
0.9672532884752141
0.972235116084205
0.9775537884591426
0.983551644032473
0.9891445793799901
0.992622609984397
0.9933327064162589
0.9917460442957579
0.9898433732967303
0.9881184700072554
0.9864332535991601
0.9830575222594953
0.9783112729381899
0.9732838241324511
0.970853446658719
0.971637341191175
0.9754884938097058
0.9805723460248162
0.9870817097366128
0.9956770934864916
1.008505571274626
1.0257633093115932
1.0476825662845866
1.0723539020110777
1.0982050315608647
1.1245806242451588
1.1521059820195052
1.1812258878535544
1.2116813727802975
1.2430593060905184
1.2739083183639406
1.3045387607989865
1.333948957978713
1.3603527575742902
1.3814966508132314
1.3953789704414141
1.402558107031641
1.4072742701789946
1.4141193457147678
1.424633161457236
1.4379129206956087
1.450125924080812
1.4587298382935299
1.4625794904459846
1.4640264729369188
1.46349645721901
1.4621992244052675
1.458474230418671
1.4535115727511185
1.447856354447593
1.4441879307715049
1.443094686232143
1.4444563232866308
1.4462836530146814
1.4474392045906752
1.4477839003058008
1.4492739104618269
1.452213274507061
1.4562055472739994
1.458288532742948
1.4577776794023385
1.4557462576403173
1.454426762931724
1.4557638459888345
1.457290064297941
1.45798926683645
1.4556235010962955
1.4526603083357976
1.4505610460755693
1.4508194811481179
1.452590396891607
1.4536023200465462
1.4526744703704064
1.4508379797634765
1.4502773321881637
1.452035958228292
1.4550478426123385
1.4570618388023115
1.4575787602324508
1.4569558876277076
1.4577251525050858
1.4606766528969117
1.4641879416628905
1.4660075649808424
1.4646230965103217
1.4610507998900226
1.4571634720997293
1.4538709720698233
1.450137981825813
1.444010261825581
1.4340760654559368
1.4224355349822415
1.4109889992472466
1.4010519993651875
1.3912831625438458
1.3792111407486234
1.3648796750274674
1.349104292395025
1.334387542110113
1.3216696367814327
1.3103354365347748
1.2980721332082992
1.2844266567747222
1.2700044659484055
1.2575602941206345
1.2470364289706477
1.237863687441031
1.2275318705317007
1.2155603902018621
1.202065472355752
1.1893342570286656
1.1776211881403023
1.1656230604840303
1.1510272936485657
1.1337139456759011
1.1138447855173588
1.0938697678741105
1.0750166575959972
1.0575250366391644
1.0394415293546082
1.0208989963307293
1.0029218235309976
0.9873135919071566
0.9750810909794381
0.9651186071874829
0.9556956182719432
0.9459747604424106
0.9364203156276427
0.9288380269731847
0.923796869056282
0.9205021372898861
0.9170497471610493
0.9127926805764321
0.9084497966037092
0.9052328430446883
0.9036930819782022
0.9030024918053668
0.9020502370348743
0.90000298879091
0.8977856684518419
0.8964757804322927
0.8971434882965407
0.898519390117383
0.9000127110155771
0.9001954395710823
0.9002397113501661
0.9012950163956396
0.904270780519591
0.9084925066305272
0.9125236265171927
0.9153651399098757
0.9177292488060287
0.9206733304346847
0.9250796157870759
0.9298458588756866
0.9335535344877607
0.9348551183716612
0.934515532981486
0.9336331178677038
0.9324455268346356
0.9301850704123114
0.9254416618063753
0.91733084002665
0.9073494967588631
0.8970480090792895
0.8863921746771783
0.8758588116436676
0.8650391572724025
0.8546931354258193
0.8445326871052868
0.8352840172308549
0.8264396627086553
0.8182080402474949
0.8087291529593197
0.7983214642809674
0.787367843954816
0.7771970855738111
0.7676087013713401
0.7584345788533585
0.7488373398534733
0.7385199123784781
0.7280167192440203
0.7178106326137917
0.7082930739506228
0.6995742883001427
0.6904186187836574
0.6810141053010934
0.6707284777221418
0.6612074421474557
0.6519760518839604
0.6433711194937078
0.6344683896956468
0.6258072609097122
0.616415170891925
0.6078214463357674
0.5996736577639888
0.5927391429201703
0.584973732878754
0.5775422662451438
0.569610676005712
0.5630177812787804
0.5566183357296516
0.5513729075542227
0.546105050861968
