0.4585059309277688
0.45769395323561046
0.4571344793495034
0.4563984491014047
0.45587963126034226
0.45586745634785864
0.4568907628366729
0.45729030303028034
0.4582624412658736
0.4583989075264162
0.460406619302617
0.4620585002700045
0.4660221594470682
0.46885148379309105
0.4734808646815971
0.476018495378605
0.4802901780552759
0.48321817015301327
0.4876847888535266
0.48995633164822344
0.4924368784393783
0.4929517065791959
0.4944656073154635
0.4953067376175724
0.49711380097116
0.4970942427875
0.49681886962343547
0.4947461145691417
0.4937850394413393
0.49234540596994736
0.49254202415656984
0.49143308641296796
0.49105388431166724
0.48949222909172785
0.48988640734228484
0.4905240085551069
0.49305435282351306
0.49466630410494095
0.496723122710086
0.4977725180795105
0.5007242511261231
0.5042513039617474
0.5096849839432247
0.5141749010655735
0.5192842813351115
0.5234123834421152
0.5289584283609281
0.5343112956853884
0.5409062582627726
0.5466053684536705
0.5524141605581967
0.5573711892082377
0.5637830277652537
0.5708525720065085
0.5792184707256641
0.5863910823094173
0.5927835542251563
0.5974558287361367
0.6030543510628665
0.6090602010826581
0.6172421938586564
0.6254511533593817
0.6347430284759906
0.6441004899014592
0.6556764010302537
0.668232273988691
0.6823652559082533
0.6946745446314382
0.7050857898944736
0.7125623432920236
0.7196961432760764
0.7262134185559402
0.7329502573419399
0.7382149742463611
0.7430813548879668
0.7472143527173974
0.7526481887376651
0.7582495151702446
0.7636400624862807
0.7661420875532803
0.7662456367467207
0.76407211000634
0.7624369303179128
0.7614892111681086
0.7616861655137991
0.7606299795076489
0.7582234206738128
0.7535127430611863
0.7480294760867422
0.740683964184117
0.7315814947714956
0.7189776669362623
0.7042727388215527
0.6883440282139718
0.6737830539419276
0.6608897990546745
0.649998921650562
0.6389641329454451
0.6284557428625743
0.6176646360450084
0.6086489715524404
0.6006091897412805
0.5940036101908662
0.5868335078157759
0.5797514832266497
0.5722369033079304
0.5665114366664618
0.5620617948914348
0.5592569311569298
0.5559727765365197
0.5524151985506478
0.5482029151635369
0.5450192745670186
0.5425300322638861
0.5411912807288503
0.5392096251339519
0.5370887570405681
0.5340828729986663
0.5320736589400266
0.5306869458920529
0.5301192473512645
0.5286654001066825
0.5267274341437956
0.5240314718332615
0.5224473405283178
0.5215584218666218
0.5218024695475909
0.5214343402464638
0.5205513456772272
0.5190973327098842
0.5183038756386479
0.5186043243501993
0.5196671619992482
0.5201195750396674
0.5197168019161907
0.5187574169853489
0.5188586244826708
0.5198864980652732
0.5216382054119894
0.5226411233407001
0.5227563227798108
0.5221611274216016
0.5221982333243971
0.5231011157738125
0.5244619590276284
0.5250439603307222
0.5245453688103473
0.5238750507178082
0.5239726881928171
0.5254925734628444
0.5274637176926387
0.5291386200896112
0.5297648926550999
0.5302665571221877
0.5313296392620815
0.5340114226727101
0.5371137872342829
0.5402045994809006
0.542366233606875
0.5450335665797589
0.5489077154078396
0.5552054929552538
0.5630494225220406
0.5719631433131587
0.5812663505534035
0.5919959006954463
0.6055138713460962
0.6218232704469703
0.6410469434197917
0.661088579634083
0.681723207041679
0.7028857637208795
0.7260841409650375
0.750841451985975
0.7752980807676467
0.7954093533459601
0.80749032271219
0.8123321515871391
0.8142822892066204
0.8170470102058699
0.821736707853994
0.8260975014247633
0.8294147011617583
0.8318978013005676
0.836024930893509
0.8416834078478526
0.8485723607556896
0.8540180469366415
0.8576686385159626
0.8590179185777039
0.8590889858250451
0.858651093447672
0.8571619708342741
0.8549551969717225
0.8516069259211131
0.8493980231340142
0.8497473574991787
0.8542480727798191
0.8614035847984323
0.8695854591245066
0.8769282103160424
0.8841524098976857
0.8913616341387925
0.8985647729734592
0.9037735439293133
0.9060109715111777
0.9036587218147056
0.8981721910335242
0.8903134236475355
0.8817449884790298
0.8719139643017542
0.8605157842346303
0.8475087270639565
0.8342612664394595
0.8225661678237177
0.813395593905138
0.8055726360223316
0.7980523880060519
0.7900847828846502
0.7827103603796627
0.7767333726677026
0.7732858047512277
0.7715465159344882
0.7703137479967129
0.7689866326333351
0.7685169212723051
0.7695508503323443
0.7729022625451637
0.7770099417685575
0.7811647908840874
0.7840012453026551
0.7871258229757189
0.7917490549005931
0.7989665206914527
0.8072297299388232
0.8160123478208567
0.8241127794494366
0.8329027258636925
0.8429833356566413
0.8550302935400261
0.8682215440276355
0.8808522416313227
0.8914972981791771
0.9007579737455603
0.9088761440064071
0.916617328524755
0.9221984442545805
0.9252914180750647
0.9244146210214377
0.9221673879652434
0.9198635146886888
0.9199059907993239
0.9207332043402684
0.921470221241765
0.9201766989683013
0.9179528580514373
0.9145691510980571
0.9108555224354015
0.904454313559876
0.8949866657984497
0.8811653260097203
0.8658996556044266
0.8500965260700186
0.8364127570948546
0.8232213902002623
0.8107294917150145
0.7980679051437949
0.7869113075410352
0.7782144514853367
0.7729366166146937
0.7698783630834523
0.7681970828082351
0.7669722305465991
0.7668450832320751
0.7689016534142465
0.7735055134870408
0.7803916040293256
0.7877270603753809
0.7949024366276239
0.8012901786112012
0.8075538522702597
0.8139128197905525
0.8197224318719842
0.8240510528225882
0.8262103464091756
0.8275921032787835
0.8301949682404922
0.8351914171554908
0.842033156223913
0.8486450152399428
0.8540188972615209
0.8593287072957572
0.8661544203343949
0.8748637372300345
0.8844604818766415
0.8929674774630014
0.8998458730712688
0.9048890502306328
0.9104804476457244
0.9171303812489423
0.9255596346366893
0.9329554105004271
0.9386902904828756
0.9434232449769996
0.9490754773787354
0.9562095476102688
0.9640370241540969
0.9708980596016192
0.9768611718882664
0.9819142150897942
0.9873661145449258
0.9934128453500884
0.99906041226566
1.0026202639603545
1.003378366395328
1.0018570881235414
0.9999570653569662
0.9982531181127119
0.9965816943942853
0.9932004321378021
0.98843658203929
0.9833900975916566
0.9810113994446769
0.9818239551660791
0.9857410076025643
0.9908463698114005
0.9974483431014216
1.006149613781576
1.0190756942602457
1.0365154510585342
1.0585421631642746
1.0834233669382054
1.1092603943067645
1.1356220804075443
1.162963447301569
1.1919245696503358
1.2221226308981565
1.2531175745545602
1.283420185551149
1.313277842285493
1.3416892026982166
1.367105290849808
1.387750617497298
1.4013357682553647
1.4082850715547528
1.412688882916194
1.4190748204875856
1.4291848205371565
1.441844881973053
1.4536233425306468
1.4618605510262825
1.4654124508624526
1.4666788505960633
1.4661025271221475
1.4650571369257435
1.4616012524391062
1.4568466988241928
1.4511482254487265
1.4476500791288067
1.4464720968305171
1.4479800981125053
1.449673435880837
1.4507919262729148
1.4510870615738032
1.4524387362716207
1.4554043136155648
1.4591379978136778
1.4611890201739095
1.4605894210647903
1.4586205576019782
1.4573795294524692
1.458614901312611
1.4601707421856056
1.4608292248718644
1.4586548507967687
1.4556261787454163
1.4535184499821594
1.4538347109600214
1.4557097751255708
1.4567475897096727
1.4556856393749882
1.453911100573726
1.4532370137095387
1.455111819346409
1.4580466776981456
1.4600720864202108
1.4602763250625759
1.4593442163591146
1.4601056465664037
1.4631086936835374
1.4666564003897231
1.4683751347170808
1.4670472103666559
1.4634685827752003
1.4598267155358877
1.4566229773677997
1.453302207925359
1.447410765386007
1.4379481324223884
1.4268572150397603
1.4160427494426326
1.4065811835558417
1.3972668445805803
1.3856652989402318
1.371955531902343
1.3566945393931826
1.342444820812314
1.3301854523402445
1.3192471727643942
1.3073281151841332
1.2939568745796386
1.2798082999959737
1.2676270163561614
1.257317864335774
1.2483250796123437
1.2380506521054853
1.2262279639958713
1.2128153121455425
1.2002622110944037
1.1885714687037134
1.1767389076835952
1.1622510844019007
1.1449533288051252
1.1250102160185953
1.1049392834799554
1.0860924466568593
1.0685923510947608
1.0503968556042873
1.0317501150755355
1.0136124682949539
0.9978729323196206
0.9854832068842985
0.9754609538410146
0.9659688854248202
0.9561619741780657
0.9464457344920016
0.9387592981465204
0.9336064816029639
0.9302763138707838
0.926758108153001
0.9225067813297887
0.9180703200202015
0.9148203521599577
0.9131919585529669
0.9124886666883311
0.9115396526257568
0.9094896712414838
0.9072355872008849
0.9058820406331412
0.9065244561168783
0.907936210572337
0.9094114924727777
0.9096266932462503
0.9096414854918129
0.9107772397678979
0.9137666994774466
0.9180552496819742
0.9220930196112538
0.9250278700895896
0.9274385617888156
0.9303695550775657
0.9347428062578282
0.9395437538470981
0.9433673129598312
0.9446295479910636
0.944213186150367
0.9432833285817892
0.9421444750688277
0.9398644112897281
0.9350352862487344
0.9268902611870269
0.9168525506640258
0.9064116683779831
0.8955381652325088
0.8849352551137394
0.8740500722884796
0.8637302637941121
0.853357385603401
0.843935270895746
0.834771059484433
0.8263346293695907
0.8167059814312018
0.8061021752310366
0.7951683070290496
0.7846348793833533
0.7752011408635726
0.7657470295841879
0.7562216594154539
0.7456046632931514
0.7348169957571482
0.7245636862581488
0.7149073257825456
0.7061067535184992
0.6967309161854123
0.6870933015068409
0.6766835838532314
0.6670790585701499
0.6577475540460225
0.6491181459211456
0.6398527263833987
0.6311331985893489
0.6218143700497871
0.6132813487275691
0.6053183686258626
0.598274685778749
0.5908569871559229
0.5831057767686733
0.5750553318206394
0.5682122469743629
0.5620447872078227
0.5567020843584329
0.5509201525295325
