0.46018237367046255
0.459360638446886
0.45878497049458217
0.45805608225493827
0.4575465312241126
0.4575473374392881
0.45851367030080525
0.45884962079666725
0.4598171330753291
0.4600229514365546
0.46206322329047944
0.46367300522793864
0.46765516851767697
0.4705016956325534
0.4752403775475342
0.47773772931542424
0.48197631738618274
0.4848906668055157
0.4893322952588198
0.49163318814835444
0.49408090661569587
0.4945870237375166
0.4960858350535116
0.49688441869232647
0.4987240706303556
0.49872794418055877
0.49849669232519145
0.49642030875386917
0.49542576051952003
0.4939823762812791
0.4942071403485178
0.49307246217221123
0.49267811028261943
0.49109298125429124
0.491520043314922
0.49214902274688466
0.49467578300564147
0.4962623692538872
0.49834693804011204
0.4993639778691081
0.5023278604804059
0.505855134842691
0.5113005225746053
0.5158088693354993
0.5208914222896669
0.5250270163072752
0.5305645024470081
0.5359153855513747
0.5425411754379956
0.5482205907410846
0.5540060270054834
0.5589587669906815
0.5653649173311692
0.5724000896729499
0.5807078276966774
0.587857756790859
0.5942929054441357
0.5989387425749756
0.6045310504388463
0.6104960345285656
0.6186583618859266
0.6268314967932439
0.6360469450066187
0.6453063891384166
0.656763809462224
0.66919500298955
0.6832392479802932
0.6954699297303933
0.7058583381549907
0.713303541088852
0.7204204018625472
0.7268682691802187
0.733510550921261
0.7386857513934034
0.7435509700790158
0.7476549577162758
0.7530461331600633
0.7585833986967205
0.7640294494415892
0.7664965249335374
0.7666223761634609
0.7643988450582467
0.7628211668472625
0.7618375216429126
0.7620603467366269
0.7610780736632842
0.7587032640671191
0.7540018361165234
0.7484867340100609
0.741215928251754
0.7322178188423443
0.7197498479049839
0.7051651212120462
0.6893346975498941
0.6748384615891629
0.6620590047620124
0.65123389738024
0.6403262498934728
0.6298472558960905
0.6191376286719926
0.610143253956208
0.6021375106603636
0.5955579954891973
0.5883773128490978
0.5812886906372029
0.5737989928219799
0.5681064505850393
0.5636992422955219
0.5608986339610603
0.5576304614042495
0.5540612020906018
0.5498435252158765
0.5466448345621391
0.5441997439459815
0.542875799467789
0.540903068581167
0.538727740347829
0.5357026056599642
0.5337197073265925
0.5323462554855778
0.5317924041215755
0.530298124547538
0.5283587722316729
0.5256504347239502
0.5240699785288427
0.5232086457965793
0.5234629075598386
0.5230724229332744
0.5221905982438264
0.5207250950622347
0.5199653080775064
0.520235925170139
0.521292191132516
0.5217184497809974
0.5213314990836829
0.5203701869290853
0.520491162449963
0.5214892099511361
0.5232692422487422
0.5242943576919358
0.5244293998937555
0.5237916691141956
0.5238014497468968
0.5247008485450052
0.5260758252358809
0.5266511001869045
0.526161321877629
0.5255148192065271
0.5256328750234148
0.5271526916180598
0.5290970704969812
0.5307799508305026
0.5313945203326115
0.5318984761350289
0.5329308851916376
0.5355752005662263
0.5386666873101733
0.541745125067101
0.5439340585899357
0.5466034376484827
0.550474637026556
0.556751628529593
0.5645835381200189
0.573467768909391
0.5827571430953015
0.5934451582659268
0.6069194517423727
0.6231562065338008
0.6422730626841681
0.6621828232530999
0.6826807947148916
0.7036670168217943
0.7267125059864423
0.7512357639741625
0.7755270862552239
0.7954075236407553
0.8074220191847544
0.8121793584460769
0.8141416196367475
0.816874177067528
0.8215405120819697
0.8258541054684431
0.8291076160082861
0.8315672382315827
0.8356625625139581
0.8413088556769518
0.8481103707366104
0.8535163082658491
0.857071945270408
0.858362953474234
0.8584287013040645
0.8579911610776391
0.8565834553787757
0.8544540780957482
0.8511914800443199
0.8490323417511431
0.8493281199142723
0.8537916745685273
0.8608048813319417
0.8689221524978474
0.8761339303242829
0.8832890394786017
0.8904150064364332
0.8975775971199105
0.902804630789595
0.9049497543180506
0.9026193004937442
0.8971480714117167
0.8893976375445253
0.8809613937855408
0.8712505664589941
0.8600556576836793
0.8472042720231979
0.8341028203122353
0.822483449744725
0.8133481851709358
0.8056019990035967
0.7981852345591338
0.7903054010327494
0.7829933780934509
0.7770232717039058
0.7736008989914922
0.771847229229692
0.7706581863663161
0.7693206042659283
0.7688664278078152
0.7699406246060793
0.7732803367668177
0.7773526495598626
0.781359474094835
0.7841507592320944
0.7872481085959989
0.7918698817824797
0.799034404330961
0.8072262428313128
0.8159240852652065
0.8239676295603581
0.8326816627655762
0.842657392881383
0.8545945075396021
0.8676604355244657
0.8801907512046159
0.8906623819569315
0.8998030671895478
0.9078143722772513
0.9155387229132473
0.9210712736270059
0.924174069167905
0.9232787902902952
0.921081621802272
0.918738036336939
0.9188274572560219
0.9196504506216798
0.920397653737659
0.9191304348159044
0.9168931564589247
0.9135657783926486
0.9098500800755907
0.9035447851918239
0.8941635422995425
0.8804666357436337
0.8653292427809878
0.8497108127716198
0.8361824130182889
0.823162555972952
0.8107707376163674
0.7982057685654654
0.7870854456651758
0.7784297987487829
0.7731694368297137
0.7701616092245465
0.768540050510056
0.7673285723909792
0.7671583382752564
0.7691611320602194
0.7737282066409773
0.7805759924367027
0.7878450538388334
0.7949550475474705
0.8012856928252825
0.8074733542431177
0.8137954470378537
0.8195284912384487
0.8237623045251914
0.8258391508373802
0.8271900934739872
0.8297647874886247
0.834726237452397
0.8415321860482623
0.8481443300460453
0.8534645383805813
0.8587077734310347
0.865429453145939
0.8740686330752239
0.883562752196872
0.8920183571256713
0.8988701729881825
0.9038617363129041
0.909437978516156
0.9159538918131455
0.9243376984184589
0.9316138577039591
0.9373481741894287
0.9420238927860879
0.9476528366927616
0.9546781766269539
0.9624908451038692
0.9692606878366078
0.9752114319010616
0.9801542881121966
0.9854833332799157
0.991459452212325
0.9970215866390557
1.0005435969267453
1.0012327637903642
0.9996904308239352
0.9977944768169228
0.9960731875761492
0.9944167745076284
0.9910494781773506
0.9863013983169351
0.9812355159892099
0.9788271564315193
0.9795464065164567
0.9833967192644614
0.9883950936840468
0.9949361634961477
1.0034987290090138
1.016294599546529
1.0334786490241321
1.0552170582627276
1.0798266893341741
1.105497630043296
1.13178108102846
1.1590355955119271
1.1878232713615915
1.2179998289127105
1.2488748808859376
1.2793190428568395
1.3092982779356923
1.338178363012005
1.3640480828199981
1.384875254045505
1.3986447193080023
1.405490453570337
1.4100701110941196
1.4165288046247853
1.4270377218770565
1.4400118259598016
1.4521457556293706
1.4606661853503256
1.4644090774192566
1.4657741267405644
1.4652110543002734
1.464044880281676
1.460384484252462
1.4555709941934036
1.449854949239009
1.446395566770066
1.445144217073969
1.4466309707613703
1.4482308780035935
1.4493788001233237
1.4497958083103557
1.451326061327929
1.4542433607491063
1.4580260360404744
1.4600192111054833
1.4595906122839846
1.4576499844758866
1.4563775242797292
1.457523284144983
1.4591219631166192
1.4599176384841828
1.457759447092163
1.4547267058347708
1.4526412316318937
1.4529291874396366
1.4546774305532917
1.4556113855189032
1.4546242870548496
1.4527102776159881
1.4521739316087916
1.4540357079365487
1.4571815181865833
1.4592358036331787
1.4596198210973292
1.4587892224079508
1.4596472780351308
1.462470515917126
1.4661351260657394
1.4677484109806858
1.4665402708554416
1.462887259544918
1.459132344594512
1.4557900418413756
1.4522410041988267
1.4461260295903093
1.4364066572849918
1.4249344424393036
1.4137932734045335
1.4039885415021176
1.3942780369615375
1.3825452424356586
1.3686351037441014
1.3533356801694874
1.33887889459011
1.326461865702935
1.3154370234945794
1.3033932108514974
1.2899724080986883
1.2757677594449008
1.2635796154211045
1.2532392729212742
1.244253800901107
1.2340298160527428
1.222281595474743
1.2089436101163864
1.1964056942366739
1.184758778188469
1.1728958120229827
1.158593766890544
1.1414658055081688
1.1218279345353954
1.101899075958037
1.0832084535317095
1.065830238677086
1.047816507811487
1.0293313445190193
1.0113765480793244
0.9958253140705128
0.9835540337797369
0.9736085877626873
0.9641929916859279
0.9545127503818442
0.9449406872211749
0.9373477263125141
0.9323163989267162
0.9289989095240488
0.9255056657646847
0.921223903378741
0.9168547856955207
0.9136451469067662
0.9121226849546745
0.9114421934034195
0.910503698334499
0.9084072701747905
0.9061500391547062
0.9048241682989665
0.905534460492947
0.9069632588116722
0.9084501583362975
0.9085645608809788
0.9085831825784922
0.9096766045609734
0.9126669528009993
0.9168682217615931
0.9208052945088335
0.9236645371632838
0.9260213783854416
0.9289670435982008
0.9332842688217544
0.9380851400774051
0.9418595599193776
0.9431481829555455
0.9427319619796517
0.9417637536332263
0.9405183131332351
0.9382299965776073
0.9334454771301104
0.9254453316655933
0.9154139779841215
0.9049804574002482
0.8942197435050081
0.883649571447966
0.8729233615470765
0.8625587886009034
0.8522586917372659
0.8429174932652623
0.8337598008756549
0.8256243624956126
0.8159504678796806
0.8058012497885816
0.7946178969723515
0.7844808355862644
0.7747310395104577
0.765705437643441
0.755941273494284
0.7456687570522526
0.7346364101380563
0.7246026314461508
0.7147899451549519
0.7063497121440787
0.6968968544289416
0.687749757190812
0.6773094684689382
0.6678836010003332
0.6585293346371549
0.6501130857901283
0.6412133722247522
0.6323671266798405
0.6230903773389277
0.6143723999886281
0.6066132304167431
0.5994424762795103
0.5917531434165372
0.5836982905235099
0.5758267723137994
0.5692226120628425
0.5632059380446948
0.5578551047744277
0.5524932311000402
