0.5291664691193846
0.6108529493081538
0.5716773623342405
0.5823973397303776
0.5885029269126248
0.5812506773268704
0.5809996657391602
0.5749274765254364
0.5721591241077546
0.5707359734688897
0.5705787027695841
0.5741796813649804
0.57815925590158
0.5811539933348331
0.5871573857916511
0.5925918318146329
0.5935513804084278
0.5929675906312508
0.593562673274063
0.5936326093535088
0.5934008178072774
0.5905145711971557
0.5895930195453484
0.5885254136346455
0.5907717694895309
0.5891471029579847
0.5876256440826265
0.5888652573625704
0.5906485613533461
0.5889898348398371
0.5910410709750747
0.589456877360267
0.5929501733151558
0.5931410887324682
0.5931907963125796
0.5932313952443895
0.5964672678521814
0.5988408156502464
0.6017208485330248
0.6022860484416996
0.6060806783480119
0.6093447241302059
0.6145461153378907
0.6189450267864985
0.6235188522812832
0.6290892044898797
0.6327555069238612
0.6371923447764489
0.6394575127615043
0.6405369433832717
0.641748940045964
0.6432293369925116
0.643320987378693
0.6450215725329546
0.6432734820924355
0.6448728961608605
0.6449567834163106
0.6448577049977668
0.642451818621305
0.6425510537408508
0.6387276318933591
0.6394844531657464
0.6404816327947882
0.6415768904812846
0.6428591720968541
0.6444944567508921
0.6457390026758381
0.6504955037755294
0.6557439398719783
0.6587211043417525
0.6621722500802106
0.6641457746906367
0.6684869123838193
0.6745371187423067
0.6815185742625538
0.6877694771243439
0.695562490731519
0.7030624389542449
0.7155796345174325
0.7272963635543047
0.7378346671988726
0.7464859305442432
0.7566256760202991
0.7629219435046123
0.7752929880599991
0.7832780382208476
0.7910844128276295
0.7967264224040626
0.8059558851747394
0.8075015723282472
0.8056960886481782
0.8059719204668013
0.8043766253802366
0.8033338265862064
0.8019876265337533
0.8001517056333083
0.7980885316562935
0.7992115870716472
0.8007055551371571
0.7987462646044837
0.7942158903504851
0.7927911831667676
0.7950690912513868
0.7935682787086591
0.7989753914406886
0.7935578276789186
0.7977140002556394
0.8004936411932558
0.8008000744081659
0.7948043138175424
0.7985175272578859
0.7952261049945077
0.7933894528740105
0.7869258258786122
0.7860430187773216
0.7803150736933683
0.7808606064944856
0.7772799262150805
0.774906166294321
0.7773503893861404
0.7811755755555467
0.7823770617208415
0.7890451087397867
0.7872728990556895
0.7884103903483828
0.791323401348993
0.7938248541899484
0.790192338710328
0.7922523739172371
0.7943750099509643
0.7985928306459485
0.8024253436437552
0.8014753804738604
0.8002252255027932
0.8074901102801118
0.808402154411856
0.8051177096159263
0.8082651640172226
0.8090437630894858
0.8136889351615676
0.8179289003665255
0.8172246770123968
0.8173916248200012
0.8171526930881623
0.8153745578540964
0.8111421638129692
0.8116729507681835
0.8085894486732406
0.809302673640607
0.8101314949751867
0.8117732442477619
0.8119538656612595
0.8147123919405646
0.8167567977621034
0.820321830570912
0.8291060133762709
0.8441488417213097
0.8686530807803237
0.8956407607546414
0.9275032783086575
0.9569129950182422
0.9947165858510554
1.0202634461318019
1.037301044351685
1.0423805961273613
1.041098619253701
1.0284657126716934
1.0213015139927097
1.0100947876584843
0.9951181099260983
0.9826006921406603
0.968205417725057
0.9546209139116717
0.9451367588292813
0.9315038709021108
0.9210746075437409
0.9188146801228968
0.9162586191607762
0.916587882194536
0.9208278287895346
0.9283272687658102
0.939492423573188
0.9478380730868172
0.9567486838521139
0.9647840973925134
0.978210645491957
0.9892264039553835
0.9959629725653518
1.0026457642541473
1.013025253507065
1.0152809048451292
1.018949704006203
1.0193741131362013
1.0181642275038536
1.0161588747944161
1.012490570863903
1.0077561666294172
1.0055575559364383
1.0020779995152025
0.9967468189778236
0.9922284054497527
0.9902705141181746
0.987999827915353
0.9889914100709418
0.9901163351634189
0.9929047116442644
0.9979245566366428
1.005918024468743
1.0121848021405586
1.019781592917864
1.0230787992154264
1.027818930773414
1.027359905335652
1.029173782383751
1.0328648816071306
1.037156219874082
1.039060099309146
1.041046219657677
1.0368203762023929
1.039697659353794
1.0382376147363732
1.0346928403792466
1.032464067446656
1.0366407882817534
1.0413479455423034
1.0506430255838706
1.056544521465162
1.0613678880971071
1.071299593237057
1.078143675074485
1.0819671747967705
1.0823457357298198
1.0798513623071277
1.082052679816952
1.0805655530153713
1.0803138081903434
1.0783788491719881
1.071211815567145
1.070939516793794
1.074550491780827
1.0686757049272213
1.0737486415802477
1.0733243125685066
1.0796203197145056
1.0914900859872976
1.1051725008485187
1.1163863637178735
1.1328623352599176
1.1488520370622843
1.1691800652006208
1.1877624774880726
1.2001096033127079
1.2215543262779038
1.2804848744830386
1.1455488990650111
1.5844551491741514
