0.56192547209728
0.5808950354368605
0.5790450003811322
0.585100834656264
0.5836292925051118
0.5832767620239029
0.5818182978698735
0.5886401083657414
0.5901493061820142
0.5887978170666056
0.5914433415860391
0.5989933657804646
0.5973042677888676
0.5993382952488876
0.5976526178216647
0.6003754130742763
0.5970983960917416
0.5948384501055928
0.5955802990802727
0.6012675806324804
0.6016394252892404
0.5984682647445768
0.5957515646315902
0.594618986114377
0.5885554462559323
0.5882900982053348
0.585684592730766
0.585860493131923
0.5872811948642523
0.5864624954510752
0.5889322480046029
0.5934292067223347
0.5940064993251765
0.5936901381536897
0.5956124725654586
0.5957848134216001
0.598943289939862
0.6012240882339089
0.60316324244117
0.605249167376492
0.609200709707093
0.612067682910316
0.617142400037638
0.6212684588429949
0.6265652661592552
0.6322437009585955
0.6351603210244926
0.6387172440836504
0.6398520475451842
0.642022404207094
0.6431066220688179
0.6446786051839759
0.6447825324216881
0.6461985568429164
0.6443312437602553
0.6458005773108574
0.6460835215969569
0.6459595142881925
0.6429263006626762
0.6422530414854755
0.639309266666241
0.6403840347022115
0.6411848819638142
0.6411782602119022
0.6421065566950226
0.6436214444169994
0.6456845341926157
0.6494609230713705
0.6548541169490909
0.6580017958691273
0.6617097092245765
0.6641297408768339
0.6684344123343743
0.6746665024224787
0.6816375142038688
0.6878434111286417
0.6960377522907786
0.7039393044088177
0.7165470301853277
0.7283789973447263
0.7384109570277382
0.7480401808320316
0.7577950568784956
0.7642170617477552
0.7760951142100697
0.784457390980667
0.7924048840229558
0.7975896616603807
0.8061027583601441
0.8084635296535029
0.8062599060199064
0.8063102690493776
0.8040363647942218
0.8029102194454365
0.8015798852825325
0.8006694239750393
0.7975629295516021
0.7983931336028802
0.8003649840819828
0.7989137463088876
0.7946300562204762
0.7931866689171677
0.7944911107169603
0.7938162581939816
0.8000131978975183
0.794867214762578
0.798622406472845
0.801598337838914
0.8017661071889233
0.79692979789787
0.7996411477619283
0.7960935746763935
0.793626493280341
0.7873716118449122
0.7857118193441612
0.7798875270383611
0.7795448188128685
0.7767284674721604
0.7739432500403286
0.7765108187589936
0.7798862413041572
0.7813178201608576
0.7884346056085589
0.7868421872020616
0.7878378729421381
0.7913777666069612
0.7938834722432617
0.7903582004934796
0.7925151873612079
0.7943203966224774
0.7987634629082687
0.8024268504089984
0.8011869536586845
0.7998668798039341
0.8076866450218808
0.8087070126334135
0.8061316956524844
0.809133319141027
0.8100909417415109
0.8143036481302015
0.8180380414661739
0.8171146871803207
0.8168191847332233
0.8168625180561753
0.815242922696266
0.8111027155977487
0.8121528019949593
0.8098105679327453
0.8100557222608119
0.8115747686676769
0.8124288830973452
0.8122575531920093
0.8143306299315162
0.8167289146758463
0.8196006100661026
0.8283472692547971
0.8432408288272795
0.8682264204572725
0.8959387313880731
0.9286443074039843
0.9576060042328095
0.997379637385962
1.0232747516338165
1.0400001058274642
1.0448906369808268
1.0425618332796285
1.0307462100313425
1.023557840053516
1.0113240242988053
0.9971998981975624
0.9849906122667622
0.9701029070210392
0.9571373601043054
0.9466860290731465
0.9324678788911457
0.9218406330811768
0.9189266162813702
0.9164563343616738
0.9173801158067919
0.9208419829726795
0.928576978632203
0.9407745346979591
0.9490942624060759
0.9584123075813211
0.9656628440353175
0.9780950393041442
0.9890560763104128
0.9963402451981745
1.0022588777997397
1.0128426475937113
1.0151252749356618
1.0202254359440965
1.0199211046058432
1.0192026641375243
1.0164840871897713
1.0119007348093971
1.0073598917465554
1.003599604777615
0.9992871535111708
0.9944175469381957
0.9916673576005889
0.9889864641277796
0.9870572204784519
0.989537677441589
0.9915226073101372
0.9934949568394683
1.0011037582020872
1.0054291152212442
1.014607082453917
1.019749187875278
1.0212076434692696
1.0263749040630414
1.0305869409032944
1.0292457683529712
1.0352444150421436
1.037689772524581
1.0441358993843146
1.0413704931676269
1.0396159225597776
1.039340540036826
1.0366589704250164
1.0311972117865076
1.0285855843558045
1.0312450428628075
1.0392893134394845
1.0485917518307644
1.0536732058086542
1.0593404802007647
1.0693074501834336
1.0744584607336567
1.0757581953819726
1.0743863587465095
1.0736678318196478
1.0750073619826646
1.0780701208202874
1.0766636015682325
1.0732254398528351
1.0731342188576216
1.0705893027063664
1.0658098197558088
1.0673490677016793
1.0694535942596604
1.073389208229302
1.0859589970284647
1.1006108073831848
1.107432991638345
1.1178790401330874
1.129358329428293
1.141531391463486
1.1606525697375258
1.1674257069193208
1.1704020488413744
1.1844872422539938
1.1547512322775135
1.2578416114395643
0.9704377255495493
