0.3999793612722974
0.4015994690891109
0.4054453568999069
0.4080053544962584
0.41250176353872803
0.4148187544342379
0.4189138959414287
0.4216593673591384
0.4260265599658195
0.42828986150706205
0.43069559300865967
0.4309338420907841
0.4322949779710263
0.43285312963395334
0.43483082466724365
0.4348394118852658
0.43466311976123934
0.4326633428340365
0.4316586242047887
0.4302767571393374
0.4301730081537927
0.42898821702911205
0.42855117599261383
0.4271717095510983
0.4275585064171847
0.42816095101927915
0.4304620901744121
0.43206137759232943
0.43406360232031654
0.43523886410033225
0.4381479787295373
0.4416812933518843
0.4470345252950264
0.451742073325798
0.4569838572128326
0.46128907940723046
0.46692895621811703
0.4724834987265712
0.47920181113202914
0.48505688816350284
0.4910567423388592
0.49633819674397034
0.5027860699993085
0.5099767160193102
0.5183358150085479
0.5258657999794781
0.5326081107848452
0.5379250597722968
0.5439211206007939
0.5501795487706981
0.5586125006598258
0.567170639673296
0.5768850245356556
0.586651829968327
0.5986357888852586
0.6117350575676194
0.6262283034681762
0.6389789990026511
0.6498976161219042
0.6580926515514222
0.6656652931679902
0.6726024131976409
0.6794190942960058
0.6849416537205912
0.6898667833871414
0.6942155401371807
0.6999452811643346
0.7057009723507698
0.7111870585515397
0.713581138441055
0.713570859016171
0.7112034824657825
0.7091452244264881
0.7078987260976657
0.707533009422131
0.7059611164048725
0.7031701857215793
0.6980650073753879
0.6923144573846556
0.684477522234222
0.6750369798097612
0.6619522538448964
0.6468019455670776
0.6303807753327644
0.6154891304491886
0.6021207721466798
0.5906024791517746
0.5790256101359901
0.5679308876674414
0.5568114628812322
0.5472190846161678
0.5388154354057411
0.5317141627107653
0.5241729971238126
0.5166658919372857
0.5088423023731261
0.5025423896255118
0.4978247515669932
0.4943831680498176
0.49091706094511983
0.48658298580116716
0.4821400154740432
0.4780716244109434
0.4755887316187447
0.4733252058795186
0.47141774342422216
0.468083632173187
0.46518521570349664
0.46212271223506596
0.46095891143872036
0.45929527892415
0.45800274663901036
0.45481026155342236
0.4522031095222247
0.4492060882379492
0.44866848111687324
0.447728033836903
0.4475738606698424
0.4453624199120036
0.44401419675391307
0.442266745058244
0.4428843363416567
0.4429770245056879
0.4436954417150871
0.4424051552056318
0.44177962498645945
0.44103706069276216
0.44233865133859374
0.4433162415812259
0.4444668834083335
0.4435741099811278
0.4430947954683353
0.44223612128680767
0.4432919224969609
0.44390589162908756
0.4447099008770121
0.443597215385559
0.4429281355916412
0.4424340427945833
0.44419180494635696
0.4457996246123419
0.44770643045988795
0.4477410595568464
0.44848254562231027
0.44895549116469546
0.4519301143659723
0.45464047591058
0.4581605398094587
0.4601278604196474
0.46326714625488796
0.46745874803108906
0.474699815777055
0.4831193734541758
0.49341732641974984
0.5038022678240606
0.5168591787326469
0.532118448727411
0.5512380714977698
0.5724553982810447
0.594781717369205
0.6169191292900297
0.6394553023501464
0.6638504537897075
0.6895240880436034
0.715203557032114
0.7363833753997417
0.7496216963855062
0.7552908585739514
0.7577751386100687
0.7607406015395112
0.7652791259392221
0.7693332407475975
0.7728777090176379
0.7756613840856024
0.7806089399208878
0.7865847868141429
0.7940837691915767
0.799797886558382
0.8039396267279808
0.8053984441176165
0.8056365276930093
0.8051890126752299
0.8036247460714363
0.8011197993971814
0.7974815164730802
0.7947968360607234
0.7949105261597266
0.799119092899825
0.806218291803554
0.8143241779935991
0.8218631164873685
0.8293605296184078
0.8371728512521557
0.8446876933622598
0.8504780545409997
0.8527510042427824
0.8504427471392862
0.8445769926891958
0.8364921350432937
0.8276116948823943
0.8172320534653699
0.8051464157561293
0.7914280231718589
0.7775648550870405
0.7655094900098571
0.7557643209473788
0.7477354563662983
0.73978444609779
0.7317809691184085
0.7242051688979938
0.7180923102044837
0.714336149699162
0.7124268938071021
0.7109882878201439
0.7096705654962048
0.7091495224482596
0.7103239040693322
0.7138406237646301
0.7182481437133541
0.7225321906304185
0.7258705340473246
0.7291823406165658
0.734247451704495
0.7415938269593242
0.7500453245321644
0.7590993385108555
0.7675600308190227
0.7768790781067744
0.7872961812270706
0.7993986613330895
