0.392316200973873
0.39211524907029083
0.39284730520879635
0.3921990072633849
0.3931790920913642
0.3929409058988196
0.3950800308011323
0.39517880914706327
0.39723110528432126
0.39740006399422123
0.4001702280218389
0.4015756023012937
0.4056113429588315
0.4082221872066915
0.4127888305834779
0.4151751263431946
0.41913543676328013
0.42187553166621744
0.42602427495652617
0.4284369506528433
0.4306149878736624
0.4311883111747993
0.43238074512299074
0.4333363680152073
0.4348875600169214
0.43505563588908386
0.43470944055374344
0.4328738500985768
0.43157106921316335
0.4301622622041001
0.4301896611285513
0.42931043876289116
0.42887556893205336
0.42742530484046204
0.42777367673342653
0.42828736807346907
0.43057948448021144
0.4321151407593208
0.43421507492863454
0.43542386731017135
0.4382787849017082
0.4417973313753319
0.4471260238530323
0.45168625570460524
0.456781093842952
0.4611723999911707
0.46700516841379014
0.47262860407960955
0.4792559275790469
0.4848619796011101
0.4909141073542458
0.4961036012594793
0.5029594030700487
0.5101654042649743
0.5187326988345504
0.5260407071514609
0.5328944010460128
0.5380990307322517
0.5441373164288259
0.5503994040647732
0.5588945446721296
0.5673756460199066
0.5770914215776562
0.5869994736509663
0.5992201361580957
0.6121540470104266
0.6264223855846226
0.6390914506832279
0.6502645275030388
0.6584658723050959
0.6660091883527511
0.6726398220417641
0.6794621366684088
0.6850318598966342
0.6903749114501134
0.6948044571764034
0.7004139149763656
0.7059810044831925
0.7113848774961044
0.7137697352121974
0.7137796665814098
0.7113696498048651
0.709300693503882
0.7077175450121378
0.7073921297310845
0.7059293360123527
0.7031389529777821
0.6980232455028018
0.6920538427956284
0.6844177844085566
0.674905528651008
0.6620866688271954
0.646888279577949
0.6306076780410181
0.6156271296201126
0.6022199814317337
0.5907689790957698
0.5791697763266741
0.5682851326036471
0.5570947540390757
0.5475847699441638
0.539081602762999
0.5319362558711141
0.5244557018035405
0.5168126740471797
0.5089553125453993
0.5026470721131877
0.4979592016928585
0.494485003783229
0.4909333446661773
0.48653609122263075
0.4821929153769542
0.4781089526570482
0.47570637095212215
0.47342894711390127
0.47163070879293134
0.468235320138851
0.4652287768353089
0.46203916386012694
0.4609427052206571
0.4594088423765657
0.4581046626981124
0.45489756376715385
0.4522886645275608
0.44946784320149463
0.4487664592826271
0.44783054304595094
0.4475303682640637
0.44551091732206305
0.4442267457172452
0.44250098941846644
0.4430850813473612
0.44326875208899047
0.4440382997454202
0.44274294286562577
0.44190879427298607
0.4411401863117001
0.4424186076085532
0.44343678171974477
0.44457345004838644
0.44388588193774947
0.44349540066254356
0.4427346022471633
0.4435813669174427
0.4440771188555948
0.4447211129663407
0.44369267546924696
0.44313901282985635
0.442764204923436
0.4444710226726237
0.44591929186947576
0.44775838481144975
0.4480660098024415
0.4488418014809738
0.44941473262910325
0.452094774765306
0.45483217308184604
0.45836708499691503
0.46044582163404224
0.46369156070570094
0.46766331269101574
0.47496141601985303
0.48332288687197295
0.49357434367244724
0.5038966460563953
0.5169034264281982
0.5324160731352603
0.5516200918825532
0.5729605777999959
0.5952240881555441
0.6172575043530013
0.6397592170979924
0.6643103862032148
0.6900771191371128
0.715659899280078
0.7365621927505729
0.7497334053472646
0.7554067912306041
0.7578768930439879
0.7605857161619926
0.7651094684216146
0.7694144865520662
0.7731267666240015
0.7760189640758036
0.7807620434607634
0.7868691441535968
0.7942436921220343
0.8000361521125484
0.8040243797819693
0.8056419262585963
0.8058055267735507
0.8054279197800004
0.8040332015311726
0.8015843984952311
0.7979854562711348
0.7951293159137462
0.7953661283975724
0.7995366793821861
0.8067897466120545
0.8148673974133764
0.8223191247984324
0.8295249136878472
0.8369121392470228
0.8445888333955462
0.850252929601717
0.8528126289123114
0.850418210950954
0.8449646162092433
0.8368260644708252
0.8278487454946434
0.817334923607453
0.8053065810126313
0.7916337293705886
0.7777261259138891
0.7654688174982494
0.7558957177088735
0.7478823724040201
0.7401241612892531
0.7318193918116034
0.7240714862952023
0.7179474585450796
0.7142674750901536
0.7125282701649122
0.7111496176526397
0.7098781012725197
0.7094632550455228
0.7107846935436072
0.7141811479995877
0.7184216299840157
0.7224856094524659
0.7258649441450958
0.7292657273229386
0.7345534590271151
0.7419184825985113
0.7507150023686888
0.7596677145552284
0.768210419004306
0.7771787075511284
0.7877957887261471
0.8000183638152474
0.8135269748537877
0.8262088157513673
0.8373449150857962
0.8467400492193793
0.8551245483634117
0.8630217204723931
0.868852573162876
0.872101541961252
0.8714854281784845
0.869599112484996
0.8674273716036496
0.8670686072842169
0.867501816153978
0.8678188318211119
0.8665084826661612
0.8639492078721414
0.8604111614294333
0.8563416131991587
0.8498026326900613
0.840084216016167
0.8263615260495064
0.8109614680453335
0.7951723728814184
0.7808642256617314
0.7673108086046692
0.7541993351235033
0.7413700053989691
0.7298435198535747
0.7208112121260762
0.714876578708128
0.7115931423424703
0.7096050421583772
0.7085349065808905
0.7081346000029805
0.7103680079920749
0.7149335599962481
0.7221204167590382
0.7296411015339548
0.7373596586808037
0.7441525720546931
0.7510331483337072
0.7575886483502199
0.7637480077824714
0.7683056862434524
0.7708117810935812
0.7725173377737893
0.7753510798203398
0.7806066799569812
0.7875280748051852
0.7944487958949918
0.8002114537465077
0.8061425993071983
0.8132924439073166
0.8223957975691892
0.8324513986839127
0.8415929323915594
0.8493934789367907
0.8551113186666771
0.8614874180975801
0.8688366820261573
0.8774940806844821
0.8849696387727252
0.8906160956461673
0.8955496840340248
0.9009977935814502
0.908357107449958
0.9163352411795656
0.9234232086088556
0.9290616299058545
0.9338646599563966
0.9394405993330655
0.9448451743917461
0.9506384399751419
0.95374200052403
0.9552076020397584
0.9536449117812497
0.9521111693662503
0.9505561781257817
0.9495225659145292
0.9467777553306215
0.9425419087969863
0.9379306331219815
0.9360147552017523
0.9369446318972635
0.9414764367969187
0.9469784777365929
0.954541081826806
0.9638218259240168
0.9775528029274867
0.9959566348894661
1.0192172922573752
1.045582998282221
1.073409337252846
1.101147597901213
1.1297305745775414
1.1584888141563146
1.1885597415988736
1.2193173654446419
1.2491019254808078
1.2775779023267797
1.3038161104970145
1.3272722621205566
1.346378873211291
1.359259571016449
1.3657501137829617
1.370275025564686
1.3765845009300999
1.3861897064188657
1.397867810125559
1.4084677687236316
1.4155831192297925
1.4179842399392246
1.418505778835114
1.4173378479667906
1.4159090593085712
1.4123055561297393
1.4077946360332745
1.4024071122971487
1.398206309809623
1.3968916485115483
1.398515892295934
1.400853966383855
1.4021464483999209
1.4022032307601284
1.4030819329352553
1.4063294431998836
1.4094510325136178
1.4117381295729137
1.4104861788343048
1.4085049125480666
1.4073775356596596
1.4087515907613524
1.4107699656232577
1.4113831331200715
1.4094114974358964
1.4065018167045436
1.4050774305416283
1.4049651315055336
1.4076447355204362
1.4079055166506393
1.4072262659980757
1.4046303568869278
1.404098287304448
1.4055330848747272
1.4080843411791288
1.409800790267244
1.4096344726506715
1.4091740626015576
1.4097045018863972
1.413497134435343
1.416981270499222
1.418765023032465
1.4176039604773645
1.4139938452522052
1.4111939107487217
1.4085382160793583
1.4069798216497282
1.4021651999290814
1.39396786647071
1.3832097553035878
1.3728798818658912
1.3645747979504212
1.3561847350902494
1.3459898092622455
1.3329754925320858
1.318564602756419
1.3048615455532906
1.2928637289792633
1.2820765958344216
1.2708153495658354
1.257901000550532
1.2438630917622568
1.2308156646047672
1.2201109643478074
1.2110612077221654
1.2011280425044881
1.1895671843680333
1.1755727733189838
1.1626931347264848
1.1500215290251214
1.1383919834680127
1.1236294332368415
1.106526971005201
1.086292559291075
1.0658981277494843
1.0463763100179417
1.0280688028989182
1.0086579033382903
0.9891502863872692
0.9699448915760744
0.9534564784623729
0.9401162338980507
0.9292914648005139
0.9190772336088309
0.9088299306803199
0.898855293456598
0.8909809690573826
0.8853040961978884
0.8815678669468733
0.8775221995917077
0.8732697491584582
0.8685826463732012
0.8652755567624181
0.863135239195982
0.8625900244321673
0.8615451647613703
0.8596038102888056
0.8569738086613543
0.8556722693204146
0.8562923575124854
0.8576211536236641
0.8590145689800889
0.8593652298591167
0.8595845121581864
0.8607406327029481
0.8638410906602022
0.8681703940461402
0.8721093151384472
0.8750379538063452
0.8776862991952328
0.8810630315791214
0.8855954257383944
0.8908624658157556
0.89501917522637
0.8969091529085212
0.896506101063892
0.8957921780234386
0.8947342024143433
0.8928638913465455
0.8886132631225486
0.8805205322556292
0.870971812720823
0.8608696776139492
0.8510911839279641
0.8393661386064953
0.827008803541429
0.8133944627980751
0.8015767770777669
0.7909582461430777
0.782354652093129
0.7730871575028462
0.7628796876170069
0.7515748600715666
0.7406676274987326
0.7295049987913291
0.7190663506348094
0.7099668212072758
0.7005829059467357
0.6900336252546962
0.6787168289458493
0.6678329328452034
0.657542515107818
0.6475804215760357
0.6375263538055099
0.6280602057416407
0.6185212628349368
0.6096045058158099
0.5992521843333877
0.5907687252317164
0.5798986186612894
0.5721309076048653
0.5629799416017448
0.5558456951323636
0.5466057524576933
0.538513969643435
0.5298015476835528
0.5223526465098804
0.5141535704516969
0.5077568150796473
0.5029366872070983
0.4966814174684572
0.4889931420666253
