0.9965017716682067
0.9940343565918216
0.9918339973458224
0.9905013515832553
0.9903968790345512
0.9908891911032313
0.9930832601304189
0.9934531317029467
0.9948173911698907
0.99438068339299
0.9962271134046545
0.9991897503110865
1.0028636028613156
1.00608786686338
1.00891402172424
1.0117595814426914
1.0154491884639492
1.0199631806949054
1.0251386904421078
1.029042429661375
1.0315243810567944
1.031628337052365
1.031855293226366
1.032772418356958
1.0342251194309529
1.034818741701203
1.0328202708019596
1.0304459166600273
1.027544904113048
1.0257996892012278
1.0248762319222822
1.0234336523610397
1.0213766941192342
1.0188541587276274
1.0175664074959423
1.0193513012660778
1.0221694811958648
1.0252595374789863
1.0268235439486209
1.028213592761672
1.0315662123230434
1.0372444439614195
1.0445096169166808
1.0518323192918082
1.0583266444831487
1.0648399826507067
1.0718240680380933
1.0804339698614092
1.0899939788201174
1.099071941518953
1.1057824764790691
1.112484508732183
1.1204322902088701
1.131754528853793
1.1436493485878387
1.1541965786665749
1.1626180849677896
1.1695508398330383
1.177058275383673
1.1861198488130238
1.1960322140391506
1.2083442572395648
1.2197276141343232
1.233707168684975
1.2484904368138707
1.2663720475798077
1.2848420899643163
1.301849288409432
1.3149915352249715
1.3242788125787293
1.3327286052097738
1.3412267758759897
1.3503815510167736
1.3578129991939765
1.3633377304544403
1.3676881216203556
1.372537211384036
1.3795877963628742
1.3863242457763676
1.3906100782401478
1.3895708801880946
1.3859617067117642
1.381930677119121
1.3810936978537296
1.3806103547156372
1.3796241275195062
1.3741925495408505
1.3668938834406414
1.3585613065088358
1.3511255520210106
1.3397493110691867
1.324334146627407
1.3031847518746609
1.282098498570812
1.2619890160238307
1.2456208997448497
1.2307208653332478
1.2160396778422136
1.2005983194984347
1.185357136067096
1.1715724788513733
1.1610600815653462
1.1511306642245858
1.1411238274474722
1.1293960307595892
1.1186087111925864
1.1090777669354548
1.1036744164079302
1.0987593890400362
1.094659164474143
1.087870585912844
1.081629786972521
1.0761075150113784
1.0729388530991824
1.070389540430572
1.0675909568604096
1.0631626199132926
1.058668565360049
1.0547577615040014
1.0532681644959867
1.0516947977256483
1.0498374896261853
1.0457869102430044
1.0421479747601066
1.0388728089636485
1.0381317852266807
1.037570655070642
1.037144919245427
1.0348341532065206
1.0329028844357897
1.0309746312390953
1.0316006646024374
1.0327171789107312
1.033763544214539
1.0324247530212194
1.0305668550562144
1.0295793362651022
1.0311654808425053
1.0332597452501402
1.0351688031611412
1.0345677032392886
1.033607889544913
1.0325406995303648
1.0338629638392045
1.0356195248892068
1.036731739448957
1.0353494177787763
1.0340153783736257
1.0335256419298777
1.0358275234899532
1.0384521696254418
1.0406542827626353
1.041170841681902
1.041234179275852
1.0425134680252055
1.0459168239387475
1.0502373307318207
1.0545987940193877
1.0576302491484144
1.0611798857450645
1.0662798322162863
1.0749878102585126
1.0861464744572373
1.0987307788443483
1.111310347377492
1.1263104616177275
1.1446110643565621
1.1684275322965916
1.1941780425940332
1.2223425387851026
1.2484817564426853
1.276362296763494
1.3051476242086526
1.3370060640132233
1.3678484451762862
1.3934479216857911
1.406784302815
1.4120604740438318
1.412926146756115
1.416556440809303
1.4219915393692364
1.4279577422702259
1.4307044209397208
1.433524485382762
1.437617299080067
1.4453876546393074
1.4529820124783117
1.4600116206815426
1.4631076011486799
1.4645917524879684
1.462700990989925
1.4632411415973765
1.4612715931930988
1.4605131881096345
1.4545231453276044
1.4517471774994826
1.4490372131197895
1.4551599391758145
1.4615706596143712
1.472728897583127
1.4790301049509842
1.4869433108904213
1.4923330834443724
1.4999828542523794
1.5055718246995273
1.5092872449679915
1.5054684608667939
1.4991848003220154
1.4900961635874455
1.482374495746797
1.4723235331648716
1.4600114222447726
1.444262206768922
1.4280705230745498
1.4131557687781844
1.4035795850501034
1.3937002882582248
1.3856863178510361
1.3744019816014585
1.3663502812115882
1.3576514088362543
1.354715518781989
1.3521256602600844
1.3518481299006146
1.3493332554325557
1.348773184017583
1.3492359181783233
1.3533411166448417
1.3581242892541163
1.363311238530395
1.3661805961422142
1.3692920271982922
1.3739164317594605
1.3830311942410451
1.3919568644783
1.4025467129966218
1.4102314802833211
1.420547568339851
1.4303785517785719
1.4447397512260995
1.4579746040822117
1.4715653026024562
1.4808652223382055
1.4904837558033375
1.4979262954252153
1.506661469700982
1.5116189191759737
1.5162453832845175
1.513496844855561
1.5122358529577105
1.5077787308217248
1.508633244918988
1.5086925369903157
1.5096084468837745
1.5074826118636546
1.5042441215670832
1.499541085673051
1.495969001361757
1.4895012666464436
1.4812282504229004
1.4655654668781777
1.449418878512411
1.4315512863512856
1.4180339968378992
1.4028145348236145
1.3899743526685824
1.374145474479701
1.3615224107883077
1.349479130376594
1.3433888842077795
1.3386691528737285
1.3375109793722564
1.3349142356820756
1.3355045112495318
1.3366950488286413
1.343770497698432
1.351295016264417
1.3613387507519445
1.3680118638085077
1.3754025317137264
1.380953050201223
1.3886421412638132
1.3945396163043908
1.4000891391502082
1.4015538630364703
1.4036167218915654
1.4045335052857162
1.411411266366157
1.4187132176276043
1.4279542093312658
1.4319357581538021
1.4375684159205224
1.4434520783862528
1.454033843410617
1.463804350720667
1.4738924692830417
1.479729333667346
1.4857689635767655
1.4897614089456375
1.4974726313576048
1.5038077793495348
1.5123979006632513
1.5164816719771135
1.5219187815210944
1.5253552367524996
1.5327132166059045
1.5384438815946546
1.5455774868843146
1.548503921598266
1.552945525697817
1.5563814769960993
1.5631141822175898
1.5676442045402967
1.5715123489423555
1.570042350734401
1.5692231257240767
1.5659567955168263
1.5667514778123839
1.5648204838336586
1.5632130966128572
1.5575247791526137
1.5539189540409757
1.5500207281723917
1.5521501268785247
1.5550396612534032
1.5608257505543495
1.5650149467535104
1.5716350122734544
1.5813543934648384
1.596910520419315
1.6137279766327484
1.633347545810371
1.649097107544934
1.6678662769459074
1.6833280290452872
1.7026406502984444
1.7171730892086503
1.7352223957203377
1.745782125113931
1.759526680556567
1.7676557408179177
1.7788565145856838
1.784964210976301
1.7908790220429451
1.7914642555052098
1.791255607847136
1.7887066821363258
1.7930029943459966
1.7971798683517648
1.8055618060338932
1.8043411109575282
1.8028738642152478
1.7991909632346776
1.8009690715167943
1.8030808500940438
1.80310453232732
1.7980342744660687
1.7952105485322636
1.7923711381840517
1.792806320915548
1.7922888410841227
1.7947439702795398
1.7940126639541476
1.7917549439728384
1.7884906284387347
1.7914036393534334
1.7925099563798186
1.7932901026469543
1.7893956288336208
1.7889238305851256
1.7872165582437303
1.7897197160093146
1.7890593337872212
1.7905924013748624
1.7867795473555534
1.7855318963262499
1.7817073752088557
1.7844695965633015
1.7845833581156152
1.7870226343324462
1.7822719221922103
1.7811818485370168
1.7777268628632912
1.7808829744130887
1.7824062251626553
1.7866401373252523
1.782277348230003
1.781044350137117
1.7769655253762306
1.7820520201343215
1.7821002449827226
1.7846951186491335
1.7799985301013335
1.7787100450170346
1.7733522072928731
1.7756342122920854
1.7750870345586873
1.7789114472206498
1.7733680643934664
1.7691393711929249
1.7614668130055369
1.761965364734778
1.7581185441087883
1.7568397283537638
1.7464933023475828
1.7415571999547228
1.7336670674446748
1.7317953626293734
1.728153113415998
1.7242522512813352
1.7167028069603192
1.7085344824445767
1.7022561480477731
1.6987751431060745
1.6942474069367417
1.6908543474560254
1.6826366527520598
1.6757861948715036
1.6661508789428954
1.661314853575359
1.6538366721100386
1.6469538545533329
1.6341708763595884
1.622102867331957
1.6082388393409752
1.5975524546080349
1.5845484163455532
1.5719712838726898
1.5549883820222177
1.5402408695704621
1.5244946569752431
1.5156447166483602
1.5076014101854474
1.5008698267050526
1.4901866006873619
1.4806625464419358
1.4720977387429803
1.469330319398661
1.4657773309608846
1.4632065047654674
1.457386527636663
1.4525994546591756
1.4473597396894504
1.446399384833747
1.4451681996102101
1.4456770214242283
1.44163904250507
1.4397182090227514
1.4364092403363231
1.438348000282701
1.4384210383045235
1.4423354621628075
1.4409599292737256
1.4416239698573314
1.4399480711529304
1.4443096911563242
1.4468215526961148
1.4513578618891156
1.4517180689170137
1.4536751039181501
1.4536983461551558
1.4581623136620794
1.462133764292547
1.465648356175604
1.4629734596578259
1.4601194917000921
1.457947175784196
1.4583848465339315
1.4561423551542634
1.4518480425227611
1.4418557492205755
1.4327844416144122
1.420216265204841
1.4114275884820158
1.3988791273810783
1.3877452064146671
1.3717872277562966
1.3589079271564735
1.3479739000011501
1.33975430833953
1.3327948109193384
1.323664706378431
1.3108276674086852
1.2992516139695494
1.2869767914948465
1.2794542345223097
1.2689367749418494
1.2613747060027252
1.2486586315541952
1.238905601276852
1.2249011535879086
1.2178735339557327
1.2086564777002742
1.2015166724289572
1.1923676122842668
1.1792030860825975
1.169664249097644
1.160859355995725
1.15786207779486
1.1507015483504635
1.137923167573645
1.1250190945476364
1.1150194025296634
1.1110028077509082
1.1059406854997578
1.1026531101333144
1.0941358679936335
1.0865033234592216
1.0809183064938888
1.0749365827833752
1.0676098910126592
1.0565465359738688
